"","ID","SampleName","InjectionVol_ul","FAME_compound","Sample_Dilution","Peak_Area","d13","Atom_per_13C","FAME_per_C","Dry_Soil_Mass_g"
"1",1,"01.05.1","3","12:0",0,17.873,-31.002,1.071749,0.7285,"6"
"2",2,"01.05.1","3","14:0",0,1.598,107.832,1.223426,0.7432,"6"
"3",3,"01.05.1","3","a15:0",0,27.59,37.836,1.147012,0.7494,"6"
"4",4,"01.05.1","3","15:0",0,2.95,72.745,1.185137,0.7494,"6"
"5",5,"01.05.1","3","16:1n9/i16:0",0,4.342,313.808,1.447601,0.7606,"6"
"6",6,"01.05.1","3","16:0",0,39.344,361.223,1.499061,0.755,"6"
"7",7,"01.05.1","3","i17:0",0,5.433,-37.937,1.06416,0.76,"6"
"8",8,"01.05.1","3","17:0cy",0,10.32,31.745,1.140358,0.7654,"6"
"9",9,"01.05.1","3","17:0",0,8.088,16.366,1.12355,0.76,"6"
"10",10,"01.05.1","3","18:2n9,12 and cis-18:1n9 and 183n3",0,11.158,271.615,1.401763,0.775,"6"
"11",11,"01.05.1","3","18:0",0,10.743,375.38,1.514415,0.7645,"6"
"12",12,"01.05.1","3","19:0cy",0,49.436,1.653,1.107466,0.7736,"6"
"13",13,"01.05.1","3","19:0",0,18.796,-28.984,1.073956,0.8216,"6"
"14",14,"01.05.1","3","20:4n6",0,0.419,1.567,1.107372,0.7919,"6"
"15",15,"01.05.1","3","20:5n3",0,0.303,-4.498,1.10074,0.797,"6"
"16",16,"01.13.1","2.5","12:0",0,15.53,-31.013,1.071736,0.7285,"6.074"
"17",17,"01.13.1","2.5","14:0",0,1.067,5.755,1.11195,0.7432,"6.074"
"18",18,"01.13.1","2.5","a15:0",0,15.64,-8.881,1.095946,0.7494,"6.074"
"19",19,"01.13.1","2.5","15:0",0,1.627,-13.301,1.091112,0.7494,"6.074"
"20",20,"01.13.1","2.5","16:1n9/i16:0",0,2.254,223.851,1.34982,0.7606,"6.074"
"21",21,"01.13.1","2.5","16:0",0,21.383,12.774,1.119624,0.755,"6.074"
"22",22,"01.13.1","2.5","i17:0",0,4.124,-29.396,1.073506,0.76,"6.074"
"23",23,"01.13.1","2.5","17:0cy",0,5.833,-16.705,1.087389,0.7654,"6.074"
"24",24,"01.13.1","2.5","17:0",0,5.332,-27.233,1.075872,0.76,"6.074"
"25",25,"01.13.1","2.5","trans-18:1n9",0,6.115,-21.929,1.081675,0.7697,"6.074"
"26",26,"01.13.1","2.5","18:0",0,5.504,0.174,1.105848,0.7645,"6.074"
"27",27,"01.13.1","2.5","19:0cy",0,24.437,-33.436,1.069085,0.7736,"6.074"
"28",28,"01.13.1","2.5","19:0",0,14.658,-32.145,1.070498,0.8216,"6.074"
"29",29,"01.13.1","2.5","20:4n6",0,0.363,-26.851,1.07629,0.7919,"6.074"
"30",30,"01.13.2","2.5","12:0",0,22.532,-50.775,1.050108,0.7285,"6.008"
"31",31,"01.13.2","2.5","14:0",0,2.888,17.481,1.124769,0.7432,"6.008"
"32",32,"01.13.2","2.5","a15:0",0,49.538,7.656,1.114029,0.7494,"6.008"
"33",33,"01.13.2","2.5","15:0",0,5.305,-9.002,1.095814,0.7494,"6.008"
"34",34,"01.13.2","2.5","16:1n9/i16:0",0,2.445,957.27,2.141408,0.7606,"6.008"
"35",35,"01.13.2","2.5","16:0",0,31.755,103.591,1.218798,0.755,"6.008"
"36",36,"01.13.2","2.5","i17:0",0,11.204,-24.938,1.078383,0.76,"6.008"
"37",37,"01.13.2","2.5","17:0cy",0,10.547,50.189,1.160506,0.7654,"6.008"
"38",38,"01.13.2","2.5","17:0",0,9.311,-15.932,1.088235,0.76,"6.008"
"39",39,"01.13.2","2.5","trans-18:1n9",0,7.987,0.292,1.105978,0.7697,"6.008"
"40",40,"01.13.2","2.5","18:0",0,7.323,73.693,1.186171,0.7645,"6.008"
"41",41,"01.13.2","2.5","19:0cy",0,32.807,-30.438,1.072366,0.7736,"6.008"
"42",42,"01.13.2","2.5","19:0",0,21.825,-30.585,1.072205,0.8216,"6.008"
"43",43,"01.13.2","2.5","20:4n6",0,1.252,-22.933,1.080576,0.7919,"6.008"
"44",44,"01.13.2","2.5","20:5n3",0,3.083,-27.948,1.07509,0.797,"6.008"
"45",45,"01.13.3","2.5","12:0",0,14.982,-31.141,1.071596,0.7285,"6.002"
"46",46,"01.13.3","2.5","14:0",0,2.528,-18.416,1.085518,0.7432,"6.002"
"47",47,"01.13.3","2.5","a15:0",0,37.532,-20.079,1.083699,0.7494,"6.002"
"48",48,"01.13.3","2.5","15:0",0,4.031,-20.629,1.083097,0.7494,"6.002"
"49",49,"01.13.3","2.5","16:1n9/i16:0",0,2.821,88.656,1.202503,0.7606,"6.002"
"50",50,"01.13.3","2.5","16:0",0,29.174,-6.97,1.098036,0.755,"6.002"
"51",51,"01.13.3","2.5","i17:0",0,7.677,-32.55,1.070054,0.76,"6.002"
"52",52,"01.13.3","2.5","17:0cy",0,8.058,-21.404,1.082249,0.7654,"6.002"
"53",53,"01.13.3","2.5","17:0",0,6.401,-27.395,1.075694,0.76,"6.002"
"54",54,"01.13.3","2.5","trans-18:1n9",0,8.874,-20.238,1.083525,0.7697,"6.002"
"55",55,"01.13.3","2.5","18:0",0,8.124,-8.908,1.095917,0.7645,"6.002"
"56",56,"01.13.3","2.5","19:0cy",0,29.943,-34.337,1.068099,0.7736,"6.002"
"57",57,"01.13.3","2.5","19:0",0,14.084,-33.126,1.069424,0.8216,"6.002"
"58",58,"01.13.3","2.5","20:4n6",0,0.996,-36.97,1.065218,0.7919,"6.002"
"59",59,"01.13.3","2.5","20:5n3",0,1.886,-35.259,1.06709,0.797,"6.002"
"60",60,"01.05.3","3","12:0",0,15.032,-39.489,1.062461,0.7285,"6.09"
"61",61,"01.05.3","3","14:0",0,2.444,13.485,1.120401,0.7432,"6.09"
"62",62,"01.05.3","3","a15:0",0,33.172,-9.676,1.095077,0.7494,"6.09"
"63",63,"01.05.3","3","15:0",0,3.847,3.815,1.10983,0.7494,"6.09"
"64",64,"01.05.3","3","16:1n9/i16:0",0,4.681,73.656,1.186131,0.7606,"6.09"
"65",65,"01.05.3","3","16:0",0,38.88,84.488,1.197955,0.755,"6.09"
"66",66,"01.05.3","3","i17:0",0,4.478,-32.868,1.069706,0.76,"6.09"
"67",67,"01.05.3","3","17:0cy",0,9.659,-7.906,1.097013,0.7654,"6.09"
"68",68,"01.05.3","3","17:0",0,7.109,-12.531,1.091955,0.76,"6.09"
"69",69,"01.05.3","3","trans-18:1n9",0,10.936,49.735,1.16001,0.7697,"6.09"
"70",70,"01.05.3","3","18:0",0,9.96,86.393,1.200033,0.7645,"6.09"
"71",71,"01.05.3","3","19:0cy",0,35.779,-20.159,1.083611,0.7736,"6.09"
"72",72,"01.05.3","3","19:0",0,16.412,-30.499,1.072298,0.8216,"6.09"
"73",73,"01.05.3","3","20:4n6",0,1.217,3.182,1.109138,0.7919,"6.09"
"74",74,"01.05.3","3","20:5n3",0,1.141,-23.857,1.079566,0.797,"6.09"
"75",75,"10.02.2","3","12:0",0,17.417,-31.144,1.071593,0.7285,"5.999"
"76",76,"10.02.2","3","14:0",0,3.389,-8.634,1.096217,0.7432,"5.999"
"77",77,"10.02.2","3","a15:0",0,60.472,-16.173,1.087971,0.7494,"5.999"
"78",78,"10.02.2","3","15:0",0,5.917,-19.583,1.084241,0.7494,"5.999"
"79",79,"10.02.2","3","16:1n9/i16:0",0,6.209,71.051,1.183287,0.7606,"5.999"
"80",80,"10.02.2","3","16:0",0,64.274,-8.548,1.096311,0.755,"5.999"
"81",81,"10.02.2","3","i17:0",0,10.02,-29.621,1.073259,0.76,"5.999"
"82",82,"10.02.2","3","17:0cy",0,17.845,-22.842,1.080676,0.7654,"5.999"
"83",83,"10.02.2","3","17:0",0,13.991,-30.522,1.072274,0.76,"5.999"
"84",84,"10.02.2","3","trans-18:1n9",0,16.936,-6.842,1.098177,0.7697,"5.999"
"85",85,"10.02.2","3","18:0",0,15.803,-13.712,1.090663,0.7645,"5.999"
"86",86,"10.02.2","3","19:0",0,17.906,-33.295,1.06924,0.8216,"5.999"
"87",87,"10.02.2","3","20:4n6",0,0.982,-30.363,1.072447,0.7919,"5.999"
"88",88,"10.02.2","3","20:5n3",0,1.717,-33.594,1.068912,0.797,"5.999"
"89",89,"10.02.1","3","12:0",0,16.051,-30.602,1.072186,0.7285,"5.807"
"90",90,"10.02.1","3","14:0",0,2.908,29.92,1.138364,0.7432,"5.807"
"91",91,"10.02.1","3","a15:0",0,43.695,11.577,1.118315,0.7494,"5.807"
"92",92,"10.02.1","3","15:0",0,3.998,0.366,1.106058,0.7494,"5.807"
"93",93,"10.02.1","3","16:1n9/i16:0",0,6.89,179.72,1.301781,0.7606,"5.807"
"94",94,"10.02.1","3","16:0",0,60.748,10.308,1.116929,0.755,"5.807"
"95",95,"10.02.1","3","i17:0",0,8.066,-30.042,1.072799,0.76,"5.807"
"96",96,"10.02.1","3","17:0cy",0,14.137,-13.707,1.090669,0.7654,"5.807"
"97",97,"10.02.1","3","17:0",0,10.321,-24.843,1.078487,0.76,"5.807"
"98",98,"10.02.1","3","trans-18:1n9",0,18.546,-9.619,1.09514,0.7697,"5.807"
"99",99,"10.02.1","3","18:0",0,17.234,11.741,1.118495,0.7645,"5.807"
"100",100,"10.02.1","3","19:0cy",0,63.4,-33.16,1.069387,0.7736,"5.807"
"101",101,"10.02.1","3","19:0",0,16.933,-34.419,1.068009,0.8216,"5.807"
"102",102,"10.02.1","3","20:4n6",0,0.784,-23.61,1.079836,0.7919,"5.807"
"103",103,"10.02.3","2","12:0",0,13.172,-30.958,1.071797,0.7285,"6.005"
"104",104,"10.02.3","2","14:0",0,1.426,-2.527,1.102895,0.7432,"6.005"
"105",105,"10.02.3","2","a15:0",0,24.547,-11.16,1.093454,0.7494,"6.005"
"106",106,"10.02.3","2","15:0",0,2.446,-13.931,1.090423,0.7494,"6.005"
"107",107,"10.02.3","2","16:1n9/i16:0",0,3.741,80.814,1.193945,0.7606,"6.005"
"108",108,"10.02.3","2","16:0",0,34.991,-8.94,1.095883,0.755,"6.005"
"109",109,"10.02.3","2","i17:0",0,0.391,-34.175,1.068276,0.76,"6.005"
"110",110,"10.02.3","2","17:0cy",0,8.818,-24.591,1.078763,0.7654,"6.005"
"111",111,"10.02.3","2","17:0",0,7.271,-26.312,1.076879,0.76,"6.005"
"112",112,"10.02.3","2","trans-18:1n9",0,11.776,-16.319,1.087812,0.7697,"6.005"
"113",113,"10.02.3","2","18:0",0,9.549,-5.604,1.099531,0.7645,"6.005"
"114",114,"10.02.3","2","19:0cy",0,35.159,-34.012,1.068455,0.7736,"6.005"
"115",115,"10.02.3","2","19:0",0,13.445,-33.419,1.069104,0.8216,"6.005"
"116",116,"10.02.3","2","20:4n6",0,0.453,-24.693,1.078651,0.7919,"6.005"
"117",117,"11.06.2","3","12:0",0,15.588,-31.606,1.071088,0.7285,"6.007"
"118",118,"11.06.2","3","14:0",0,1.905,3.592,1.109586,0.7432,"6.007"
"119",119,"11.06.2","3","a15:0",0,28.027,1.777,1.107601,0.7494,"6.007"
"120",120,"11.06.2","3","15:0",0,2.26,3.545,1.109534,0.7494,"6.007"
"121",121,"11.06.2","3","16:1n9/i16:0",0,3.852,113.782,1.229915,0.7606,"6.007"
"122",122,"11.06.2","3","16:0",0,32.518,2.419,1.108304,0.755,"6.007"
"123",123,"11.06.2","3","i17:0",0,2.008,-13.443,1.090958,0.76,"6.007"
"124",124,"11.06.2","3","17:0cy",0,10.153,-6.25,1.098824,0.7654,"6.007"
"125",125,"11.06.2","3","17:0",0,7.814,-16.495,1.087619,0.76,"6.007"
"126",126,"11.06.2","3","trans-18:1n9",0,8.512,12.918,1.119782,0.7697,"6.007"
"127",127,"11.06.2","3","18:0",0,7.41,26.387,1.134503,0.7645,"6.007"
"128",128,"11.06.2","3","19:0cy",0,38.44,-32.837,1.069741,0.7736,"6.007"
"129",129,"11.06.2","3","19:0",0,15.921,-33.195,1.069349,0.8216,"6.007"
"130",130,"11.06.2","3","20:4n6",0,0.651,-6.599,1.098443,0.7919,"6.007"
"131",131,"11.06.2","3","20:5n3",0,0.408,-26.087,1.077126,0.797,"6.007"
"132",132,"11.10.1","2.5","12:0",0,13.502,-30.343,1.072469,0.7285,"6.056"
"133",133,"11.10.1","2.5","14:0",0,1.709,0.839,1.106576,0.7432,"6.056"
"134",134,"11.10.1","2.5","a15:0",0,38.955,-17.251,1.086792,0.7494,"6.056"
"135",135,"11.10.1","2.5","15:0",0,3.82,-9.598,1.095163,0.7494,"6.056"
"136",136,"11.10.1","2.5","16:1n9/i16:0",0,4.454,37.219,1.146338,0.7606,"6.056"
"137",137,"11.10.1","2.5","16:0",0,43.355,56.616,1.167526,0.755,"6.056"
"138",138,"11.10.1","2.5","i17:0",0,7.022,-28.132,1.074889,0.76,"6.056"
"139",139,"11.10.1","2.5","17:0cy",0,12.06,-14.826,1.089445,0.7654,"6.056"
"140",140,"11.10.1","2.5","17:0",0,9.166,-20.171,1.083598,0.76,"6.056"
"141",141,"11.10.1","2.5","trans-18:1n9",0,13.029,70.904,1.183126,0.7697,"6.056"
"142",142,"11.10.1","2.5","18:0",0,8.72,75.561,1.18821,0.7645,"6.056"
"143",143,"11.10.1","2.5","19:0cy",0,43.986,-23.512,1.079943,0.7736,"6.056"
"144",144,"11.10.1","2.5","19:0",0,14.435,-29.674,1.073202,0.8216,"6.056"
"145",145,"11.10.1","2.5","20:4n6",0,0.86,-24.357,1.079019,0.7919,"6.056"
"146",146,"11.10.1","2.5","20:5n3",0,1.024,-29.803,1.07306,0.797,"6.056"
"147",147,"11.10.3","2.5","12:0",0,14.193,-30.625,1.072161,0.7285,"6.014"
"148",148,"11.10.3","2.5","14:0",0,3.342,-7.183,1.097804,0.7432,"6.014"
"149",149,"11.10.3","2.5","a15:0",0,56.994,-17.058,1.087003,0.7494,"6.014"
"150",150,"11.10.3","2.5","15:0",0,6.753,-15.168,1.089071,0.7494,"6.014"
"151",151,"11.10.3","2.5","16:1n9/i16:0",0,8.452,11.33,1.118045,0.7606,"6.014"
"152",152,"11.10.3","2.5","16:0",0,77.291,12.923,1.119787,0.755,"6.014"
"153",153,"11.10.3","2.5","i17:0",0,11.218,-30.664,1.072118,0.76,"6.014"
"154",154,"11.10.3","2.5","17:0cy",0,17.01,-22.578,1.080965,0.7654,"6.014"
"155",155,"11.10.3","2.5","17:0",0,12.139,-26.38,1.076806,0.76,"6.014"
"156",156,"11.10.3","2.5","trans-18:1n9",0,35.516,-6.403,1.098657,0.7697,"6.014"
"157",157,"11.10.3","2.5","18:0",0,19.332,19.093,1.126531,0.7645,"6.014"
"158",158,"11.10.3","2.5","19:0cy",0,90.724,-28.01,1.075022,0.7736,"6.014"
"159",159,"11.10.3","2.5","19:0",0,17.192,-33.058,1.069499,0.8216,"6.014"
"160",160,"11.10.3","2.5","20:4n6",0,1.544,-36.196,1.066065,0.7919,"6.014"
"161",161,"11.10.3","2.5","20:5n3",0,1.612,-34.246,1.068199,0.797,"6.014"
"162",162,"11.06.2","3","12:0",0,16.694,-30.335,1.072478,0.7285,"6.007"
"163",163,"11.06.2","3","14:0",0,1.09,-19.856,1.083942,0.7432,"6.007"
"164",164,"11.06.2","3","a15:0",0,23.591,-23.042,1.080457,0.7494,"6.007"
"165",165,"11.06.2","3","15:0",0,2.751,-19.177,1.084685,0.7494,"6.007"
"166",166,"11.06.2","3","16:1n9/i16:0",0,2.709,26.317,1.134426,0.7606,"6.007"
"167",167,"11.06.2","3","16:0",0,27.062,-18.47,1.085458,0.755,"6.007"
"168",168,"11.06.2","3","i17:0",0,4.539,-35.054,1.067314,0.76,"6.007"
"169",169,"11.06.2","3","17:0cy",0,7.42,-23.665,1.079775,0.7654,"6.007"
"170",170,"11.06.2","3","17:0",0,5.271,-29.292,1.073619,0.76,"6.007"
"171",171,"11.06.2","3","trans-18:1n9",0,6.318,-1.533,1.103982,0.7697,"6.007"
"172",172,"11.06.2","3","18:0",0,5.562,-6.814,1.098207,0.7645,"6.007"
"173",173,"11.06.2","3","19:0cy",0,29.297,-35.379,1.066959,0.7736,"6.007"
"174",174,"11.06.2","3","19:0",0,15.07,-32.722,1.069866,0.8216,"6.007"
"175",175,"11.06.2","3","20:4n6",0,0.745,-17.332,1.086703,0.7919,"6.007"
"176",176,"11.06.2","3","20:5n3",0,1.112,-32.765,1.069819,0.797,"6.007"
"177",177,"11.06.3","2","12:0",0,13.145,-30.895,1.071865,0.7285,"6.012"
"178",178,"11.06.3","2","14:0",0,1.643,-20.603,1.083125,0.7432,"6.012"
"179",179,"11.06.3","2","a15:0",0,22.963,-23.396,1.08007,0.7494,"6.012"
"180",180,"11.06.3","2","15:0",0,2.421,-22.892,1.080621,0.7494,"6.012"
"181",181,"11.06.3","2","16:1n9/i16:0",0,4.272,-0.072,1.10558,0.7606,"6.012"
"182",182,"11.06.3","2","16:0",0,35.114,-23.801,1.079627,0.755,"6.012"
"183",183,"11.06.3","2","i17:0",0,5.689,-30.488,1.072311,0.76,"6.012"
"184",184,"11.06.3","2","17:0cy",0,8.588,-27.086,1.076033,0.7654,"6.012"
"185",185,"11.06.3","2","17:0",0,6.671,-31.132,1.071606,0.76,"6.012"
"186",186,"11.06.3","2","trans-18:1n9",0,11.047,-23.434,1.080028,0.7697,"6.012"
"187",187,"11.06.3","2","18:0",0,9.173,-24.297,1.079085,0.7645,"6.012"
"188",188,"11.06.3","2","19:0cy",0,40.222,-34.346,1.068089,0.7736,"6.012"
"189",189,"11.06.3","2","19:0",0,13.124,-33.926,1.068548,0.8216,"6.012"
"190",190,"11.06.3","2","20:4n6",0,0.457,-40.391,1.061474,0.7919,"6.012"
"191",191,"11.06.3","2","20:5n3",0,0.615,-35.411,1.066924,0.797,"6.012"
"192",192,"11.06.3","2.5","12:0",0,24.909,-29.832,1.073029,0.7285,"6.012"
"193",193,"11.06.3","2.5","14:0",0,2.934,-26.883,1.076256,0.7432,"6.012"
"194",194,"11.06.3","2.5","a15:0",0,40.757,-28.534,1.074449,0.7494,"6.012"
"195",195,"11.06.3","2.5","15:0",0,4.651,-28.36,1.074639,0.7494,"6.012"
"196",196,"11.06.3","2.5","16:1n9/i16:0",0,5.976,-23.118,1.080374,0.7606,"6.012"
"197",197,"11.06.3","2.5","16:0",0,55.572,-28.237,1.074774,0.755,"6.012"
"198",198,"11.06.3","2.5","i17:0",0,3.28,-31.059,1.071686,0.76,"6.012"
"199",199,"11.06.3","2.5","17:0cy",0,13.521,-29.477,1.073417,0.7654,"6.012"
"200",200,"11.06.3","2.5","17:0",0,10.36,-31.786,1.070891,0.76,"6.012"
"201",201,"11.06.3","2.5","trans-18:1n9",0,18.754,-27.879,1.075166,0.7697,"6.012"
"202",202,"11.06.3","2.5","18:0",0,12.79,-30.738,1.072038,0.7645,"6.012"
"203",203,"11.06.3","2.5","19:0cy",0,69.032,-32.364,1.070258,0.7736,"6.012"
"204",204,"11.06.3","2.5","19:0",0,23.9,-31.897,1.070769,0.8216,"6.012"
"205",205,"11.06.3","2.5","20:4n6",0,0.59,-38.458,1.063589,0.7919,"6.012"
"206",206,"11.06.3","2.5","20:5n3",0,0.391,-31.531,1.07117,0.797,"6.012"
"207",207,"12.09.1","2.5","12:0",0,14.344,-30.397,1.07241,0.7285,"6"
"208",208,"12.09.1","2.5","14:0",0,1.657,29.624,1.138039,0.7432,"6"
"209",209,"12.09.1","2.5","a15:0",0,30.816,-0.909,1.104664,0.7494,"6"
"210",210,"12.09.1","2.5","15:0",0,3.197,13.128,1.120012,0.7494,"6"
"211",211,"12.09.1","2.5","16:1n9/i16:0",0,3.971,107.947,1.223551,0.7606,"6"
"212",212,"12.09.1","2.5","16:0",0,38.201,161.788,1.282247,0.755,"6"
"213",213,"12.09.1","2.5","i17:0",0,1.929,-36.035,1.066241,0.76,"6"
"214",214,"12.09.1","2.5","17:0cy",0,11.455,-1.329,1.104205,0.7654,"6"
"215",215,"12.09.1","2.5","17:0",0,8.82,-12.857,1.091599,0.76,"6"
"216",216,"12.09.1","2.5","trans-18:1n9",0,12.762,90.944,1.205,0.7697,"6"
"217",217,"12.09.1","2.5","18:0",0,8.077,196.787,1.320365,0.7645,"6"
"218",218,"12.09.1","2.5","19:0cy",0,45.096,-15.551,1.088652,0.7736,"6"
"219",219,"12.09.1","2.5","19:0",0,14.572,-32.249,1.070383,0.8216,"6"
"220",220,"12.09.1","2.5","20:4n6",0,0.329,-33.964,1.068507,0.7919,"6"
"221",221,"12.09.2","2.5","12:0",0,13.461,-30.251,1.07257,0.7285,"6.02"
"222",222,"12.09.2","2.5","14:0",0,1.269,46.054,1.15599,0.7432,"6.02"
"223",223,"12.09.2","2.5","a15:0",0,24.643,12.105,1.118893,0.7494,"6.02"
"224",224,"12.09.2","2.5","15:0",0,2.667,29.62,1.138036,0.7494,"6.02"
"225",225,"12.09.2","2.5","16:1n9/i16:0",0,2.928,158.685,1.278866,0.7606,"6.02"
"226",226,"12.09.2","2.5","16:0",0,25.569,251.095,1.379454,0.755,"6.02"
"227",227,"12.09.2","2.5","i17:0",0,3.733,-31.2,1.071532,0.76,"6.02"
"228",228,"12.09.2","2.5","17:0cy",0,7.34,14.695,1.121724,0.7654,"6.02"
"229",229,"12.09.2","2.5","17:0",0,5.517,2.45,1.108337,0.76,"6.02"
"230",230,"12.09.2","2.5","trans-18:1n9",0,7.498,159.85,1.280136,0.7697,"6.02"
"231",231,"12.09.2","2.5","18:0",0,5.454,314.855,1.448737,0.7645,"6.02"
"232",232,"12.09.2","2.5","19:0cy",0,27.9,7.153,1.113479,0.7736,"6.02"
"233",233,"12.09.2","2.5","19:0",0,13.434,-26.74,1.076411,0.8216,"6.02"
"234",234,"12.09.2","2.5","20:5n3",0,0.933,-18.584,1.085334,0.797,"6.02"
"235",235,"12.01.2","3","12:0",0,15.302,-30.638,1.072147,0.7285,"6.028"
"236",236,"12.01.2","3","14:0",0,2.741,-14.014,1.090333,0.7432,"6.028"
"237",237,"12.01.2","3","a15:0",0,48.597,-22.486,1.081066,0.7494,"6.028"
"238",238,"12.01.2","3","15:0",0,4.74,-16.435,1.087685,0.7494,"6.028"
"239",239,"12.01.2","3","16:1n9/i16:0",0,4.304,39.419,1.148741,0.7606,"6.028"
"240",240,"12.01.2","3","16:0",0,37.641,48.647,1.158823,0.755,"6.028"
"241",241,"12.01.2","3","i17:0",0,9.132,-30.965,1.071788,0.76,"6.028"
"242",242,"12.01.2","3","17:0cy",0,12.058,-20.382,1.083367,0.7654,"6.028"
"243",243,"12.01.2","3","17:0",0,8.9,-25.239,1.078054,0.76,"6.028"
"244",244,"12.01.2","3","trans-18:1n9",0,11.851,28.499,1.13681,0.7697,"6.028"
"245",245,"12.01.2","3","18:0",0,8.499,66.287,1.178086,0.7645,"6.028"
"246",246,"12.01.2","3","19:0cy",0,43.443,-24.802,1.078532,0.7736,"6.028"
"247",247,"12.01.2","3","19:0",0,15.959,-31.251,1.071476,0.8216,"6.028"
"248",248,"12.01.2","3","20:4n6",0,1.117,-20.241,1.083522,0.7919,"6.028"
"249",249,"12.01.2","3","20:5n3",0,2.632,-29.655,1.073222,0.797,"6.028"
"250",250,"12.01.3","2.5","12:0",0,14.104,-30.967,1.071786,0.7285,"6.03"
"251",251,"12.01.3","2.5","14:0",0,1.372,-10.497,1.094179,0.7432,"6.03"
"252",252,"12.01.3","2.5","a15:0",0,27.336,-22.185,1.081394,0.7494,"6.03"
"253",253,"12.01.3","2.5","15:0",0,3.096,-11.788,1.092768,0.7494,"6.03"
"254",254,"12.01.3","2.5","16:1n9/i16:0",0,3.725,6.103,1.112332,0.7606,"6.03"
"255",255,"12.01.3","2.5","16:0",0,32.428,46.986,1.157008,0.755,"6.03"
"256",256,"12.01.3","2.5","i17:0",0,3.838,-34.079,1.068381,0.76,"6.03"
"257",257,"12.01.3","2.5","17:0cy",0,7.943,-25.255,1.078036,0.7654,"6.03"
"258",258,"12.01.3","2.5","17:0",0,5.945,-25.063,1.078246,0.76,"6.03"
"259",259,"12.01.3","2.5","trans-18:1n9",0,11.433,15.89,1.12303,0.7697,"6.03"
"260",260,"12.01.3","2.5","18:0",0,7.676,54.468,1.16518,0.7645,"6.03"
"261",261,"12.01.3","2.5","19:0cy",0,31.285,-28.578,1.0744,0.7736,"6.03"
"262",262,"12.01.3","2.5","19:0",0,13.546,-31.688,1.070997,0.8216,"6.03"
"263",263,"12.01.3","2.5","20:4n6",0,0.554,-37.611,1.064516,0.7919,"6.03"
"264",264,"12.01.3","2.5","20:5n3",0,0.855,-33.568,1.06894,0.797,"6.03"
"265",265,"12.05.2","3","12:0",0,15.94,-30.573,1.072217,0.7285,"6.037"
"266",266,"12.05.2","3","14:0",0,1.189,54.166,1.16485,0.7432,"6.037"
"267",267,"12.05.2","3","a15:0",0,15.971,30.037,1.138491,0.7494,"6.037"
"268",268,"12.05.2","3","15:0",0,1.31,50.495,1.16084,0.7494,"6.037"
"269",269,"12.05.2","3","16:1n9/i16:0",0,0.215,31.062,1.139611,0.7606,"6.037"
"270",270,"12.05.2","3","16:0",0,17.082,352.975,1.490113,0.755,"6.037"
"271",271,"12.05.2","3","i17:0",0,1.778,-40.914,1.060902,0.76,"6.037"
"272",272,"12.05.2","3","17:0cy",0,5.454,14.448,1.121454,0.7654,"6.037"
"273",273,"12.05.2","3","17:0",0,4.679,13.109,1.11999,0.76,"6.037"
"274",274,"12.05.2","3","18:2n9,12 and cis-18:1n9 and 183n3",0,4.688,266.594,1.396305,0.775,"6.037"
"275",275,"12.05.2","3","18:0",0,3.484,548.84,1.702158,0.7645,"6.037"
"276",276,"12.05.2","3","19:0cy",0,15.827,18.456,1.125835,0.7736,"6.037"
"277",277,"12.05.2","3","19:0",0,16.01,-29.087,1.073844,0.8216,"6.037"
"278",278,"12.05.2","3","20:5n3",0,3.453,-32.887,1.069686,0.797,"6.037"
"279",279,"12.05.3","2.5","12:0",0,12.291,-42.653,1.058998,0.7285,"5.999"
"280",280,"12.05.3","2.5","14:0",0,0.866,-13.505,1.09089,0.7432,"5.999"
"281",281,"12.05.3","2.5","a15:0",0,14.038,-22.808,1.080713,0.7494,"5.999"
"282",282,"12.05.3","2.5","15:0",0,1.857,-13.41,1.090994,0.7494,"5.999"
"283",283,"12.05.3","2.5","16:1n9/i16:0",0,1.378,34.863,1.143764,0.7606,"5.999"
"284",284,"12.05.3","2.5","16:0",0,12.621,65.216,1.176916,0.755,"5.999"
"285",285,"12.05.3","2.5","i17:0",0,3.614,-31.863,1.070806,0.76,"5.999"
"286",286,"12.05.3","2.5","17:0cy",0,3.17,-19.826,1.083975,0.7654,"5.999"
"287",287,"12.05.3","2.5","17:0",0,2.559,-21.264,1.082403,0.76,"5.999"
"288",288,"12.05.3","2.5","trans-18:1n9",0,3.914,43.595,1.153304,0.7697,"5.999"
"289",289,"12.05.3","2.5","18:0",0,2.899,68.389,1.180381,0.7645,"5.999"
"290",290,"12.05.3","2.5","19:0cy",0,8.691,-21.476,1.08217,0.7736,"5.999"
"291",291,"12.05.3","2.5","19:0",0,11.059,-31.359,1.071357,0.8216,"5.999"
"292",292,"12.05.3","2.5","20:5n3",0,0.877,-30.015,1.072829,0.797,"5.999"
"293",293,"12.09.3","2.5","12:0",0,15.216,-30.719,1.072057,0.7285,"6.002"
"294",294,"12.09.3","2.5","14:0",0,3.07,-10.279,1.094418,0.7432,"6.002"
"295",295,"12.09.3","2.5","a15:0",0,48.74,-18.29,1.085655,0.7494,"6.002"
"296",296,"12.09.3","2.5","15:0",0,5.944,-16.025,1.088133,0.7494,"6.002"
"297",297,"12.09.3","2.5","16:1n9/i16:0",0,7.565,-0.765,1.104823,0.7606,"6.002"
"298",298,"12.09.3","2.5","16:0",0,61.866,16.338,1.12352,0.755,"6.002"
"299",299,"12.09.3","2.5","i17:0",0,9.974,-30.773,1.071999,0.76,"6.002"
"300",300,"12.09.3","2.5","17:0cy",0,14.987,-23.872,1.079549,0.7654,"6.002"
"301",301,"12.09.3","2.5","17:0",0,11.133,-26.842,1.0763,0.76,"6.002"
"302",302,"12.09.3","2.5","trans-18:1n9",0,20.521,8.969,1.115465,0.7697,"6.002"
"303",303,"12.09.3","2.5","18:0",0,15.044,24.953,1.132935,0.7645,"6.002"
"304",304,"12.09.3","2.5","19:0cy",0,64.241,-26.662,1.076497,0.7736,"6.002"
"305",305,"12.09.3","2.5","19:0",0,16.735,-31.572,1.071124,0.8216,"6.002"
"306",306,"12.09.3","2.5","20:4n6",0,1.12,-34.021,1.068445,0.7919,"6.002"
"307",307,"12.09.3","2.5","20:5n3",0,2.614,-33.628,1.068875,0.797,"6.002"
"308",308,"14.10.3","3","12:0",0,16.072,-30.77,1.072002,0.7285,"6.039"
"309",309,"14.10.3","3","14:0",0,1.461,-25.826,1.077411,0.7432,"6.039"
"310",310,"14.10.3","3","a15:0",0,22.802,-28.025,1.075005,0.7494,"6.039"
"311",311,"14.10.3","3","15:0",0,2.369,-29.528,1.073361,0.7494,"6.039"
"312",312,"14.10.3","3","16:1n9/i16:0",0,4,-20.593,1.083137,0.7606,"6.039"
"313",313,"14.10.3","3","16:0",0,35.763,-27.818,1.075232,0.755,"6.039"
"314",314,"14.10.3","3","i17:0",0,0.456,-33.242,1.069298,0.76,"6.039"
"315",315,"14.10.3","3","17:0cy",0,8.387,-31.064,1.07168,0.7654,"6.039"
"316",316,"14.10.3","3","17:0",0,6.607,-33.258,1.06928,0.76,"6.039"
"317",317,"14.10.3","3","trans-18:1n9",0,11.278,-26.687,1.076469,0.7697,"6.039"
"318",318,"14.10.3","3","18:0",0,9.767,-30.411,1.072395,0.7645,"6.039"
"319",319,"14.10.3","3","19:0cy",0,38.256,-34.764,1.067632,0.7736,"6.039"
"320",320,"14.10.3","3","19:0",0,15.696,-33.349,1.06918,0.8216,"6.039"
"321",321,"14.10.3","3","20:4n6",0,0.516,-40.845,1.060977,0.7919,"6.039"
"322",322,"14.10.1","3","12:0",0,16.241,-30.666,1.072116,0.7285,"6.035"
"323",323,"14.10.1","3","14:0",0,1.537,68.983,1.181029,0.7432,"6.035"
"324",324,"14.10.1","3","a15:0",0,24.195,8.594,1.115055,0.7494,"6.035"
"325",325,"14.10.1","3","15:0",0,2.442,7.845,1.114235,0.7494,"6.035"
"326",326,"14.10.1","3","16:1n9/i16:0",0,3.383,419.758,1.562515,0.7606,"6.035"
"327",327,"14.10.1","3","16:0",0,34.712,61.311,1.172653,0.755,"6.035"
"328",328,"14.10.1","3","i17:0",0,7.351,-25.813,1.077426,0.76,"6.035"
"329",329,"14.10.1","3","17:0cy",0,9.49,-5.27,1.099896,0.7654,"6.035"
"330",330,"14.10.1","3","17:0",0,7.67,-23.554,1.079897,0.76,"6.035"
"331",331,"14.10.1","3","trans-18:1n9",0,10.65,9.473,1.116016,0.7697,"6.035"
"332",332,"14.10.1","3","18:0",0,7.989,59.587,1.17077,0.7645,"6.035"
"333",333,"14.10.1","3","19:0cy",0,40.361,-31.36,1.071357,0.7736,"6.035"
"334",334,"14.10.1","3","19:0",0,17.3,-32.108,1.070538,0.8216,"6.035"
"335",335,"14.10.1","3","20:4n6",0,1.016,-24.12,1.079278,0.7919,"6.035"
"336",336,"14.10.2","3","12:0",0,16.84,-30.854,1.071911,0.7285,"6.001"
"337",337,"14.10.2","3","14:0",0,0.407,2.982,1.108919,0.7432,"6.001"
"338",338,"14.10.2","3","a15:0",0,25.014,16.752,1.123972,0.7494,"6.001"
"339",339,"14.10.2","3","15:0",0,2.657,13.581,1.120507,0.7494,"6.001"
"340",340,"14.10.2","3","16:1n9/i16:0",0,4.499,328.285,1.463318,0.7606,"6.001"
"341",341,"14.10.2","3","16:0",0,35.449,94.229,1.208585,0.755,"6.001"
"342",342,"14.10.2","3","i17:0",0,0.623,-37.246,1.064916,0.76,"6.001"
"343",343,"14.10.2","3","17:0cy",0,8.711,-6.231,1.098844,0.7654,"6.001"
"344",344,"14.10.2","3","17:0",0,6.824,-21.544,1.082096,0.76,"6.001"
"345",345,"14.10.2","3","18:2n9,12 and cis-18:1n9 and 183n3",0,9.459,80.945,1.194087,0.775,"6.001"
"346",346,"14.10.2","3","18:0",0,10.001,68.893,1.180931,0.7645,"6.001"
"347",347,"14.10.2","3","19:0cy",0,33.97,-30.026,1.072816,0.7736,"6.001"
"348",348,"14.10.2","3","19:0",0,17.304,-32.858,1.069717,0.8216,"6.001"
"349",349,"14.10.2","3","20:4n6",0,0.55,-26.782,1.076366,0.7919,"6.001"
"350",350,"15.16.2","2.5","12:0",0,14.291,-41.284,1.060497,0.7285,"6.092"
"351",351,"15.16.2","2.5","14:0",0,2.07,-9.916,1.094815,0.7432,"6.092"
"352",352,"15.16.2","2.5","a15:0",0,40.035,-21.179,1.082495,0.7494,"6.092"
"353",353,"15.16.2","2.5","15:0",0,4.385,-11.921,1.092622,0.7494,"6.092"
"354",354,"15.16.2","2.5","16:1n9/i16:0",0,5.002,10.89,1.117564,0.7606,"6.092"
"355",355,"15.16.2","2.5","16:0",0,7.682,-14.377,1.089936,0.755,"6.092"
"356",356,"15.16.2","2.5","i17:0",0,7.017,-30.028,1.072814,0.76,"6.092"
"357",357,"15.16.2","2.5","17:0cy",0,12.014,-19.794,1.084011,0.7654,"6.092"
"358",358,"15.16.2","2.5","17:0",0,9.07,-24.237,1.07915,0.76,"6.092"
"359",359,"15.16.2","2.5","trans-18:1n9",0,14.126,17.892,1.125218,0.7697,"6.092"
"360",360,"15.16.2","2.5","18:0",0,11.935,34.328,1.14318,0.7645,"6.092"
"361",361,"15.16.2","2.5","19:0cy",0,41.668,-28.231,1.07478,0.7736,"6.092"
"362",362,"15.16.2","2.5","19:0",0,15.135,-32.18,1.070459,0.8216,"6.092"
"363",363,"15.16.2","2.5","20:4n6",0,0.714,-35.267,1.067082,0.7919,"6.092"
"364",364,"15.16.2","2.5","20:5n3",0,1.775,-32.532,1.070075,0.797,"6.092"
"365",365,"17.01.1","3","12:0",0,16.314,-44.238,1.057263,0.7285,"6.007"
"366",366,"17.01.1","3","14:0",0,1.747,-3.721,1.101589,0.7432,"6.007"
"367",367,"17.01.1","3","a15:0",0,35.591,-11.742,1.092818,0.7494,"6.007"
"368",368,"17.01.1","3","15:0",0,4.053,-14.224,1.090103,0.7494,"6.007"
"369",369,"17.01.1","3","16:1n9/i16:0",0,4.251,83.389,1.196755,0.7606,"6.007"
"370",370,"17.01.1","3","16:0",0,44.191,-10.5,1.094177,0.755,"6.007"
"371",371,"17.01.1","3","i17:0",0,8.043,-27.63,1.075438,0.76,"6.007"
"372",372,"17.01.1","3","17:0cy",0,12.676,-20.436,1.083308,0.7654,"6.007"
"373",373,"17.01.1","3","17:0",0,9.356,-29.893,1.072961,0.76,"6.007"
"374",374,"17.01.1","3","trans-18:1n9",0,12.35,-13.869,1.090491,0.7697,"6.007"
"375",375,"17.01.1","3","18:0",0,9.852,-10.716,1.09394,0.7645,"6.007"
"376",376,"17.01.1","3","19:0cy",0,52.633,-35.242,1.067109,0.7736,"6.007"
"377",377,"17.01.1","3","19:0",0,18.002,-34.019,1.068447,0.8216,"6.007"
"378",378,"17.01.1","3","20:4n6",0,0.82,-33.525,1.068988,0.7919,"6.007"
"379",379,"17.01.1","3","20:5n3",0,1.204,-32.853,1.069723,0.797,"6.007"
"380",380,"17.01.3","3","12:0",0,16.989,-39.093,1.062895,0.7285,"6.062"
"381",381,"17.01.3","3","14:0",0,2.004,-20.464,1.083277,0.7432,"6.062"
"382",382,"17.01.3","3","a15:0",0,44.317,-24.867,1.078461,0.7494,"6.062"
"383",383,"17.01.3","3","15:0",0,4.644,-25.892,1.077339,0.7494,"6.062"
"384",384,"17.01.3","3","16:1n9/i16:0",0,4.713,8.915,1.115405,0.7606,"6.062"
"385",385,"17.01.3","3","16:0",0,54.132,-22.158,1.081424,0.755,"6.062"
"386",386,"17.01.3","3","17:0cy",0,15.697,-27.262,1.07584,0.7654,"6.062"
"387",387,"17.01.3","3","17:0",0,12.211,-32.76,1.069825,0.76,"6.062"
"388",388,"17.01.3","3","trans-18:1n9",0,16.564,-27.501,1.075579,0.7697,"6.062"
"389",389,"17.01.3","3","18:0",0,11.981,-22.03,1.081564,0.7645,"6.062"
"390",390,"17.01.3","3","19:0cy",0,73.052,-34.335,1.068102,0.7736,"6.062"
"391",391,"17.01.3","3","19:0",0,19.862,-33.419,1.069104,0.8216,"6.062"
"392",392,"17.01.3","3","20:4n6",0,0.951,-35.077,1.06729,0.7919,"6.062"
"393",393,"17.01.3","3","20:5n3",0,1.325,-35.219,1.067134,0.797,"6.062"
"394",394,"17.06.1","3","12:0",0,16.268,-50.709,1.05018,0.7285,"6.036"
"395",395,"17.06.1","3","14:0",0,3.821,19.059,1.126494,0.7432,"6.036"
"396",396,"17.06.1","3","a15:0",0,59.17,-6.058,1.099034,0.7494,"6.036"
"397",397,"17.06.1","3","15:0",0,6.329,-14.059,1.090283,0.7494,"6.036"
"398",398,"17.06.1","3","16:1n9/i16:0",0,6.519,224.815,1.350869,0.7606,"6.036"
"399",399,"17.06.1","3","16:0",0,54.889,43.064,1.152724,0.755,"6.036"
"400",400,"17.06.1","3","i17:0",0,8.418,-28.409,1.074586,0.76,"6.036"
"401",401,"17.06.1","3","17:0cy",0,15.368,-10.868,1.093774,0.7654,"6.036"
"402",402,"17.06.1","3","17:0",0,11.339,-25.661,1.077592,0.76,"6.036"
"403",403,"17.06.1","3","trans-18:1n9",0,17.328,36.715,1.145788,0.7697,"6.036"
"404",404,"17.06.1","3","18:0",0,12.751,37.047,1.14615,0.7645,"6.036"
"405",405,"17.06.1","3","19:0cy",0,74.813,-32.34,1.070284,0.7736,"6.036"
"406",406,"17.06.1","3","19:0",0,17.07,-32.913,1.069657,0.8216,"6.036"
"407",407,"17.06.1","3","20:4n6",0,1.807,-24.224,1.079165,0.7919,"6.036"
"408",408,"17.06.1","3","20:5n3",0,2.632,-30.103,1.072732,0.797,"6.036"
"409",409,"17.06.2","3","12:0",0,17.298,-30.7,1.072079,0.7285,"6.013"
"410",410,"17.06.2","3","14:0",0,1.459,-24.541,1.078818,0.7432,"6.013"
"411",411,"17.06.2","3","a15:0",0,61.452,-15.378,1.088841,0.7494,"6.013"
"412",412,"17.06.2","3","15:0",0,6.829,-22.47,1.081083,0.7494,"6.013"
"413",413,"17.06.2","3","16:1n9/i16:0",0,7.19,39.093,1.148386,0.7606,"6.013"
"414",414,"17.06.2","3","16:0",0,59.52,-5.43,1.099721,0.755,"6.013"
"415",415,"17.06.2","3","i17:0",0,10.416,-29.632,1.073247,0.76,"6.013"
"416",416,"17.06.2","3","17:0cy",0,16.959,-18.722,1.085183,0.7654,"6.013"
"417",417,"17.06.2","3","17:0",0,12.901,-28.651,1.07432,0.76,"6.013"
"418",418,"17.06.2","3","18:2n9,12 and cis-18:1n9 and 183n3",0,20.228,-12.166,1.092354,0.775,"6.013"
"419",419,"17.06.2","3","18:0",0,16.503,-10.993,1.093637,0.7645,"6.013"
"420",420,"17.06.2","3","19:0cy",0,65.168,-32.754,1.069831,0.7736,"6.013"
"421",421,"17.06.2","3","19:0",0,18.85,-32.744,1.069842,0.8216,"6.013"
"422",422,"17.06.2","3","20:4n6",0,1.882,-23.432,1.080031,0.7919,"6.013"
"423",423,"17.06.2","3","20:5n3",0,2.874,-30.516,1.07228,0.797,"6.013"
"424",424,"17.01.1b","3","12:0",0,14.918,-31.056,1.071689,0.7285,"5.999"
"425",425,"17.01.1b","3","14:0",0,1.978,-10.831,1.093814,0.7432,"5.999"
"426",426,"17.01.1b","3","a15:0",0,33.217,-15.464,1.088746,0.7494,"5.999"
"427",427,"17.01.1b","3","15:0",0,3.316,-15.456,1.088755,0.7494,"5.999"
"428",428,"17.01.1b","3","16:1n9/i16:0",0,1.478,150.412,1.269851,0.7606,"5.999"
"429",429,"17.01.1b","3","16:0",0,19.411,-6.047,1.099046,0.755,"5.999"
"430",430,"17.01.1b","3","i17:0",0,8.254,-32.537,1.070069,0.76,"5.999"
"431",431,"17.01.1b","3","17:0cy",0,5.565,-16.667,1.087431,0.7654,"5.999"
"432",432,"17.01.1b","3","17:0",0,4.791,-27.772,1.075282,0.76,"5.999"
"433",433,"17.01.1b","3","trans-18:1n9",0,5.853,33.048,1.141781,0.7697,"5.999"
"434",434,"17.01.1b","3","18:0",0,4.786,-0.379,1.105244,0.7645,"5.999"
"435",435,"17.01.1b","3","19:0cy",0,20.973,-33.446,1.069074,0.7736,"5.999"
"436",436,"17.01.1b","3","19:0",0,13.815,-32.444,1.07017,0.8216,"5.999"
"437",437,"17.01.1b","3","20:4n6",0,0.667,-37.936,1.064161,0.7919,"5.999"
"438",438,"17.01.1b","3","20:5n3",0,3.146,-32.305,1.070323,0.797,"5.999"
"439",439,"17.06.3","3","12:0",0,15.135,-31.129,1.071609,0.7285,"6.02"
"440",440,"17.06.3","3","14:0",0,2.747,-29.075,1.073857,0.7432,"6.02"
"441",441,"17.06.3","3","a15:0",0,46.03,-30.549,1.072244,0.7494,"6.02"
"442",442,"17.06.3","3","15:0",0,5.414,-30.773,1.071998,0.7494,"6.02"
"443",443,"17.06.3","3","16:1n9/i16:0",0,4.447,-21.347,1.082311,0.7606,"6.02"
"444",444,"17.06.3","3","16:0",0,44.535,-29.971,1.072876,0.755,"6.02"
"445",445,"17.06.3","3","i17:0",0,8.113,-32.174,1.070466,0.76,"6.02"
"446",446,"17.06.3","3","17:0cy",0,11.962,-30.918,1.07184,0.7654,"6.02"
"447",447,"17.06.3","3","17:0",0,9.322,-34.58,1.067833,0.76,"6.02"
"448",448,"17.06.3","3","trans-18:1n9",0,16,-29.511,1.07338,0.7697,"6.02"
"449",449,"17.06.3","3","18:0",0,10.409,-30.184,1.072643,0.7645,"6.02"
"450",450,"17.06.3","3","19:0cy",0,51.246,-34.95,1.067428,0.7736,"6.02"
"451",451,"17.06.3","3","19:0",0,15.754,-32.923,1.069646,0.8216,"6.02"
"452",452,"17.06.3","3","20:4n6",0,1.161,-35.712,1.066594,0.7919,"6.02"
"453",453,"17.06.3","3","20:5n3",0,2.386,-32.513,1.070095,0.797,"6.02"
"454",454,"18.05.1","3","12:0",0,14.9,-30.797,1.071972,0.7285,"6.095"
"455",455,"18.05.1","3","a15:0",0,36.705,-17.892,1.086091,0.7494,"6.095"
"456",456,"18.05.1","3","15:0",0,3.656,-16.556,1.087552,0.7494,"6.095"
"457",457,"18.05.1","3","16:1n9/i16:0",0,3.609,58.211,1.169268,0.7606,"6.095"
"458",458,"18.05.1","3","16:0",0,39.489,10.349,1.116973,0.755,"6.095"
"459",459,"18.05.1","3","i17:0",0,5.917,-32.127,1.070517,0.76,"6.095"
"460",460,"18.05.1","3","17:0cy",0,10.929,-18.032,1.085938,0.7654,"6.095"
"461",461,"18.05.1","3","17:0",0,8.605,-28.716,1.07425,0.76,"6.095"
"462",462,"18.05.1","3","trans-18:1n9",0,12.442,14.332,1.121328,0.7697,"6.095"
"463",463,"18.05.1","3","18:0",0,8.854,3.314,1.109282,0.7645,"6.095"
"464",464,"18.05.1","3","19:0",0,52.389,-33.987,1.068482,0.8216,"6.095"
"465",465,"18.05.1","3","20:4n6",0,0.527,-24.592,1.078761,0.7919,"6.095"
"466",466,"18.05.1","3","20:5n3",0,1.839,-31.899,1.070767,0.797,"6.095"
"467",467,"18.05.2","2.5","12:0",0,17.593,-31.539,1.071161,0.7285,"6.008"
"468",468,"18.05.2","2.5","14:0",0,6.146,-8.258,1.096628,0.7432,"6.008"
"469",469,"18.05.2","2.5","a15:0",0,43.022,-6.132,1.098953,0.7494,"6.008"
"470",470,"18.05.2","2.5","15:0",0,12.597,-24.119,1.079279,0.7494,"6.008"
"471",471,"18.05.2","2.5","16:1n9/i16:0",0,18.197,92.269,1.206445,0.7606,"6.008"
"472",472,"18.05.2","2.5","16:0",0,40.683,88.364,1.202185,0.755,"6.008"
"473",473,"18.05.2","2.5","i17:0",0,12.503,-29.327,1.073581,0.76,"6.008"
"474",474,"18.05.2","2.5","17:0cy",0,16.102,-17.924,1.086056,0.7654,"6.008"
"475",475,"18.05.2","2.5","17:0",0,15.503,-12.615,1.091863,0.76,"6.008"
"476",476,"18.05.2","2.5","trans-18:1n9",0,18.311,-0.326,1.105302,0.7697,"6.008"
"477",477,"18.05.2","2.5","18:0",0,12.012,68.79,1.180819,0.7645,"6.008"
"478",478,"18.05.2","2.5","19:0cy",0,35.074,-27.732,1.075326,0.7736,"6.008"
"479",479,"18.05.2","2.5","19:0",0,19.604,-31.597,1.071098,0.8216,"6.008"
"480",480,"18.05.2","2.5","20:4n6",0,9.51,-22.984,1.08052,0.7919,"6.008"
"481",481,"18.05.2","2.5","20:5n3",0,10.077,-27.34,1.075754,0.797,"6.008"
"482",482,"18.05.3","2.5","12:0",0,23.389,-30.118,1.072716,0.7285,"6.001"
"483",483,"18.05.3","2.5","14:0",0,2.473,-19.296,1.084555,0.7432,"6.001"
"484",484,"18.05.3","2.5","a15:0",0,40.611,-22.289,1.081281,0.7494,"6.001"
"485",485,"18.05.3","2.5","15:0",0,4.894,-22.323,1.081244,0.7494,"6.001"
"486",486,"18.05.3","2.5","16:1n9/i16:0",0,5.196,12.39,1.119204,0.7606,"6.001"
"487",487,"18.05.3","2.5","16:0",0,53.494,-21.604,1.082031,0.755,"6.001"
"488",488,"18.05.3","2.5","i17:0",0,5.906,-32.358,1.070265,0.76,"6.001"
"489",489,"18.05.3","2.5","17:0cy",0,11.789,-27.285,1.075816,0.7654,"6.001"
"490",490,"18.05.3","2.5","17:0",0,9.497,-31.888,1.070779,0.76,"6.001"
"491",491,"18.05.3","2.5","trans-18:1n9",0,19.255,-23.828,1.079598,0.7697,"6.001"
"492",492,"18.05.3","2.5","18:0",0,12.725,-20.185,1.083583,0.7645,"6.001"
"493",493,"18.05.3","2.5","19:0cy",0,51.257,-34.727,1.067672,0.7736,"6.001"
"494",494,"18.05.3","2.5","19:0",0,21.567,-31.721,1.070962,0.8216,"6.001"
"495",495,"18.05.3","2.5","20:4n6",0,1.037,-40.288,1.061586,0.7919,"6.001"
"496",496,"18.05.3","2.5","20:5n3",0,1.295,-35.948,1.066336,0.797,"6.001"
"497",497,"02.10.1","2.5","12:0",0,13.457,-30.539,1.072254,0.7285,"6.059"
"498",498,"02.10.1","2.5","14:0",0,1.264,175.821,1.297535,0.7432,"6.059"
"499",499,"02.10.1","2.5","a15:0",0,22.725,1.16,1.106927,0.7494,"6.059"
"500",500,"02.10.1","2.5","15:0",0,2.152,-6.373,1.098689,0.7494,"6.059"
"501",501,"02.10.1","2.5","16:1n9/i16:0",0,3.413,293.71,1.425772,0.7606,"6.059"
"502",502,"02.10.1","2.5","16:0",0,26.02,66.261,1.178058,0.755,"6.059"
"503",503,"02.10.1","2.5","i17:0",0,0.446,-32.615,1.069984,0.76,"6.059"
"504",504,"02.10.1","2.5","17:0cy",0,7.563,-9.78,1.094963,0.7654,"6.059"
"505",505,"02.10.1","2.5","17:0",0,6.328,-23.515,1.07994,0.76,"6.059"
"506",506,"02.10.1","2.5","trans-18:1n9",0,7.789,-14.042,1.090302,0.7697,"6.059"
"507",507,"02.10.1","2.5","18:0",0,6.797,35.632,1.144604,0.7645,"6.059"
"508",508,"02.10.1","2.5","19:0cy",0,24.889,-32.249,1.070384,0.7736,"6.059"
"509",509,"02.10.1","2.5","19:0",0,13.575,-32.347,1.070277,0.8216,"6.059"
"510",510,"02.10.1","2.5","20:4n6",0,0.402,-18.368,1.085571,0.7919,"6.059"
"511",511,"02.10.3","3","12:0",0,15.975,-31.012,1.071737,0.7285,"6.002"
"512",512,"02.10.3","3","14:0",0,1.404,-21.05,1.082636,0.7432,"6.002"
"513",513,"02.10.3","3","a15:0",0,30.103,-25.635,1.077621,0.7494,"6.002"
"514",514,"02.10.3","3","15:0",0,3.332,-27.043,1.07608,0.7494,"6.002"
"515",515,"02.10.3","3","16:1n9/i16:0",0,3.469,22.559,1.130319,0.7606,"6.002"
"516",516,"02.10.3","3","16:0",0,35.431,-20.376,1.083373,0.755,"6.002"
"517",517,"02.10.3","3","i17:0",0,4.765,-32.602,1.069997,0.76,"6.002"
"518",518,"02.10.3","3","17:0cy",0,10.241,-28.372,1.074626,0.7654,"6.002"
"519",519,"02.10.3","3","17:0",0,7.975,-31.942,1.070719,0.76,"6.002"
"520",520,"02.10.3","3","trans-18:1n9",0,10.98,-24.529,1.078831,0.7697,"6.002"
"521",521,"02.10.3","3","18:0",0,8.991,-19.807,1.083997,0.7645,"6.002"
"522",522,"02.10.3","3","19:0cy",0,42.485,-34.432,1.067995,0.7736,"6.002"
"523",523,"02.10.3","3","19:0",0,16.684,-33.036,1.069523,0.8216,"6.002"
"524",524,"02.10.3","3","20:4n6",0,1.031,-37.747,1.064367,0.7919,"6.002"
"525",525,"02.10.3","3","20:5n3",0,1.133,-35.216,1.067137,0.797,"6.002"
"526",526,"02.08.1","3","12:0",0,16.26,-30.341,1.072472,0.7285,"6.004"
"527",527,"02.08.1","3","14:0",0,1.319,56.009,1.166862,0.7432,"6.004"
"528",528,"02.08.1","3","a15:0",0,24.472,-0.793,1.104792,0.7494,"6.004"
"529",529,"02.08.1","3","15:0",0,2.782,30.283,1.13876,0.7494,"6.004"
"530",530,"02.08.1","3","16:1n9/i16:0",0,2.671,161.454,1.281884,0.7606,"6.004"
"531",531,"02.08.1","3","16:0",0,26.196,274.107,1.404471,0.755,"6.004"
"532",532,"02.08.1","3","i17:0",0,4.779,-33.194,1.069349,0.76,"6.004"
"533",533,"02.08.1","3","17:0cy",0,7.285,9.359,1.115891,0.7654,"6.004"
"534",534,"02.08.1","3","17:0",0,5.792,-0.752,1.104836,0.76,"6.004"
"535",535,"02.08.1","3","18:2n9,12 and cis-18:1n9 and 183n3",0,7.519,167.034,1.287962,0.775,"6.004"
"536",536,"02.08.1","3","18:0",0,6.701,256.925,1.385793,0.7645,"6.004"
"537",537,"02.08.1","3","19:0cy",0,26.491,-1.891,1.10359,0.7736,"6.004"
"538",538,"02.08.1","3","19:0",0,16.918,-27.714,1.075346,0.8216,"6.004"
"539",539,"02.08.1","3","20:4n6",0,0.78,-21.569,1.082069,0.7919,"6.004"
"540",540,"02.08.1","3","20:5n3",0,1.45,-31.553,1.071145,0.797,"6.004"
"541",541,"02.08.2","3","12:0",0,16.54,-31.564,1.071133,0.7285,"6.003"
"542",542,"02.08.2","3","14:0",0,3.173,21.752,1.129437,0.7432,"6.003"
"543",543,"02.08.2","3","a15:0",0,49.215,-2.035,1.103433,0.7494,"6.003"
"544",544,"02.08.2","3","15:0",0,6.361,-2.033,1.103435,0.7494,"6.003"
"545",545,"02.08.2","3","16:1n9/i16:0",0,9.255,67.205,1.179089,0.7606,"6.003"
"546",546,"02.08.2","3","16:0",0,68.84,91.233,1.205315,0.755,"6.003"
"547",547,"02.08.2","3","i17:0",0,10.095,-26.288,1.076906,0.76,"6.003"
"548",548,"02.08.2","3","17:0cy",0,17.487,-8.824,1.096009,0.7654,"6.003"
"549",549,"02.08.2","3","17:0",0,13.065,-15.569,1.088632,0.76,"6.003"
"550",550,"02.08.2","3","trans-18:1n9",0,22.234,55.988,1.16684,0.7697,"6.003"
"551",551,"02.08.2","3","18:0",0,21.677,79.111,1.192086,0.7645,"6.003"
"552",552,"02.08.2","3","19:0cy",0,75.379,-21.293,1.08237,0.7736,"6.003"
"553",553,"02.08.2","3","19:0",0,19.62,-30.151,1.072679,0.8216,"6.003"
"554",554,"02.08.2","3","20:4n6",0,1.567,-12.008,1.092527,0.7919,"6.003"
"555",555,"02.08.2","3","20:5n3",0,0.607,-20.28,1.083479,0.797,"6.003"
"556",556,"02.08.3","3","12:0",0,14.947,-30.611,1.072176,0.7285,"6.007"
"557",557,"02.08.3","3","14:0",0,4.921,-9.107,1.0957,0.7432,"6.007"
"558",558,"02.08.3","3","a15:0",0,80.145,-16.425,1.087695,0.7494,"6.007"
"559",559,"02.08.3","3","15:0",0,8.762,-12.135,1.092388,0.7494,"6.007"
"560",560,"02.08.3","3","16:1n9/i16:0",0,15.664,6.036,1.112258,0.7606,"6.007"
"561",561,"02.08.3","3","16:0",0,115.871,10.968,1.11765,0.755,"6.007"
"562",562,"02.08.3","3","i17:0",0,15.26,-29.845,1.073015,0.76,"6.007"
"563",563,"02.08.3","3","17:0cy",0,23.756,-20.794,1.082916,0.7654,"6.007"
"564",564,"02.08.3","3","17:0",0,17.504,-25.171,1.078128,0.76,"6.007"
"565",565,"02.08.3","3","trans-18:1n9",0,40.931,13.647,1.120578,0.7697,"6.007"
"566",566,"02.08.3","3","18:0",0,41.198,15.277,1.12236,0.7645,"6.007"
"567",567,"02.08.3","3","19:0cy",0,128.818,-27.354,1.07574,0.7736,"6.007"
"568",568,"02.08.3","3","19:0",0,19.84,-30.283,1.072535,0.8216,"6.007"
"569",569,"02.08.3","3","20:4n6",0,2.549,-28.88,1.07407,0.7919,"6.007"
"570",570,"02.08.3","3","20:5n3",0,0.689,-30.425,1.072379,0.797,"6.007"
"571",571,"20.04.1","3","12:0",0,19.005,-30.964,1.071789,0.7285,"6"
"572",572,"20.04.1","3","14:0",0,1.525,58.673,1.169772,0.7432,"6"
"573",573,"20.04.1","3","a15:0",0,22.802,36.138,1.145158,0.7494,"6"
"574",574,"20.04.1","3","15:0",0,2.734,12.051,1.118834,0.7494,"6"
"575",575,"20.04.1","3","16:1n9/i16:0",0,3.286,410.839,1.552852,0.7606,"6"
"576",576,"20.04.1","3","16:0",0,27.871,66.791,1.178637,0.755,"6"
"577",577,"20.04.1","3","i17:0",0,7.357,-26,1.077221,0.76,"6"
"578",578,"20.04.1","3","17:0cy",0,8.266,6.989,1.1133,0.7654,"6"
"579",579,"20.04.1","3","17:0",0,6.073,-23.342,1.080129,0.76,"6"
"580",580,"20.04.1","3","18:2n9,12 and cis-18:1n9 and 183n3",0,8.645,19.43,1.126899,0.775,"6"
"581",581,"20.04.1","3","18:0",0,5.914,64.396,1.176021,0.7645,"6"
"582",582,"20.04.1","3","19:0cy",0,31.961,-31.643,1.071046,0.7736,"6"
"583",583,"20.04.1","3","19:0",0,18.236,-33.186,1.069358,0.8216,"6"
"584",584,"20.04.1","3","20:4n6",0,0.362,23.366,1.131201,0.7919,"6"
"585",585,"20.04.1","3","20:5n3",0,0.312,-3.613,1.101708,0.797,"6"
"586",586,"20.04.2","3","12:0",0,15.767,-30.701,1.072077,0.7285,"5.901"
"587",587,"20.04.2","3","a15:0",0,25.82,-19.303,1.084548,0.7494,"5.901"
"588",588,"20.04.2","3","15:0",0,2.578,-20.191,1.083576,0.7494,"5.901"
"589",589,"20.04.2","3","16:1n9/i16:0",0,3.454,19.063,1.126499,0.7606,"5.901"
"590",590,"20.04.2","3","16:0",0,35.434,-12.214,1.092302,0.755,"5.901"
"591",591,"20.04.2","3","i17:0",0,7.031,-31.891,1.070776,0.76,"5.901"
"592",592,"20.04.2","3","17:0cy",0,10.16,-23.923,1.079493,0.7654,"5.901"
"593",593,"20.04.2","3","17:0",0,8.404,-30.626,1.07216,0.76,"5.901"
"594",594,"20.04.2","3","18:2n9,12 and cis-18:1n9 and 183n3",0,9.773,-9.201,1.095596,0.775,"5.901"
"595",595,"20.04.2","3","18:0",0,7.875,-15.119,1.089124,0.7645,"5.901"
"596",596,"20.04.2","3","19:0cy",0,48.387,-33.89,1.068588,0.7736,"5.901"
"597",597,"20.04.2","3","19:0",0,17.124,-33.892,1.068586,0.8216,"5.901"
"598",598,"20.04.2","3","20:4n6",0,0.403,-37.559,1.064574,0.7919,"5.901"
"599",599,"22.07.2","2.5","12:0",0,22.621,-29.427,1.073472,0.7285,"6.025"
"600",600,"22.07.2","2.5","14:0",0,2.768,31.131,1.139687,0.7432,"6.025"
"601",601,"22.07.2","2.5","a15:0",0,53.636,4.123,1.110166,0.7494,"6.025"
"602",602,"22.07.2","2.5","15:0",0,5.876,14.779,1.121816,0.7494,"6.025"
"603",603,"22.07.2","2.5","16:1n9/i16:0",0,5.916,123.196,1.240182,0.7606,"6.025"
"604",604,"22.07.2","2.5","16:0",0,53.288,175.896,1.297615,0.755,"6.025"
"605",605,"22.07.2","2.5","i17:0",0,9.952,-25.107,1.078198,0.76,"6.025"
"606",606,"22.07.2","2.5","17:0cy",0,15.598,5.864,1.11207,0.7654,"6.025"
"607",607,"22.07.2","2.5","17:0",0,12.335,-7.753,1.09718,0.76,"6.025"
"608",608,"22.07.2","2.5","trans-18:1n9",0,17.245,109.62,1.225376,0.7697,"6.025"
"609",609,"22.07.2","2.5","18:0",0,10.482,222.556,1.348412,0.7645,"6.025"
"610",610,"22.07.2","2.5","19:0cy",0,55.328,-4.415,1.100831,0.7736,"6.025"
"611",611,"22.07.2","2.5","19:0",0,22.764,-26.866,1.076274,0.8216,"6.025"
"612",612,"22.07.2","2.5","20:4n6",0,0.799,-4.485,1.100754,0.7919,"6.025"
"613",613,"22.07.2","2.5","20:5n3",0,2.267,-22.458,1.081097,0.797,"6.025"
"614",614,"22.07.3","3","12:0",0,17.053,-31.085,1.071657,0.7285,"6.022"
"615",615,"22.07.3","3","14:0",0,2.864,-27.465,1.075618,0.7432,"6.022"
"616",616,"22.07.3","3","a15:0",0,49.456,-29.986,1.07286,0.7494,"6.022"
"617",617,"22.07.3","3","15:0",0,6.679,-29.38,1.073523,0.7494,"6.022"
"618",618,"22.07.3","3","16:1n9/i16:0",0,6.974,-26.717,1.076437,0.7606,"6.022"
"619",619,"22.07.3","3","16:0",0,70.264,-24.195,1.079196,0.755,"6.022"
"620",620,"22.07.3","3","i17:0",0,10.799,-31.398,1.071315,0.76,"6.022"
"621",621,"22.07.3","3","17:0cy",0,17.124,-31.473,1.071233,0.7654,"6.022"
"622",622,"22.07.3","3","17:0",0,13.237,-33.651,1.06885,0.76,"6.022"
"623",623,"22.07.3","3","trans-18:1n9",0,30.086,-26.858,1.076282,0.7697,"6.022"
"624",624,"22.07.3","3","18:0",0,15.95,-23.53,1.079923,0.7645,"6.022"
"625",625,"22.07.3","3","19:0cy",0,89.599,-33.974,1.068496,0.7736,"6.022"
"626",626,"22.07.3","3","19:0",0,19.687,-33.749,1.068743,0.8216,"6.022"
"627",627,"22.07.3","3","20:4n6",0,1.208,-38.93,1.063073,0.7919,"6.022"
"628",628,"22.07.3","3","20:5n3",0,0.561,-34.586,1.067826,0.797,"6.022"
"629",629,"24.02.1","3","12:0",0,16.355,-31.198,1.071533,0.7285,"6.06"
"630",630,"24.02.1","3","14:0",0,2.686,43.288,1.152969,0.7432,"6.06"
"631",631,"24.02.1","3","a15:0",0,48.495,14.87,1.121916,0.7494,"6.06"
"632",632,"24.02.1","3","15:0",0,6.009,7.882,1.114276,0.7494,"6.06"
"633",633,"24.02.1","3","16:1n9/i16:0",0,5.932,117.928,1.234437,0.7606,"6.06"
"634",634,"24.02.1","3","16:0",0,57.097,148.407,1.267666,0.755,"6.06"
"635",635,"24.02.1","3","i17:0",0,2.23,-26.945,1.076187,0.76,"6.06"
"636",636,"24.02.1","3","17:0cy",0,16.461,3.805,1.109819,0.7654,"6.06"
"637",637,"24.02.1","3","17:0",0,12.859,-11.918,1.092625,0.76,"6.06"
"638",638,"24.02.1","3","trans-18:1n9",0,17.524,95.585,1.210064,0.7697,"6.06"
"639",639,"24.02.1","3","18:0",0,13.191,178.054,1.299966,0.7645,"6.06"
"640",640,"24.02.1","3","19:0cy",0,74.837,-14.477,1.089827,0.7736,"6.06"
"641",641,"24.02.1","3","19:0",0,19.073,-27.553,1.075522,0.8216,"6.06"
"642",642,"24.02.1","3","20:4n6",0,0.673,-8.769,1.096069,0.7919,"6.06"
"643",643,"24.02.1","3","20:5n3",0,0.4,-20.691,1.083029,0.797,"6.06"
"644",644,"24.02.2","3","12:0",0,15.138,-30.259,1.072562,0.7285,"6.02"
"645",645,"24.02.2","3","14:0",0,2.564,3.2,1.109158,0.7432,"6.02"
"646",646,"24.02.2","3","a15:0",0,0.933,-27.526,1.075552,0.7494,"6.02"
"647",647,"24.02.2","3","15:0",0,5.125,-5.837,1.099276,0.7494,"6.02"
"648",648,"24.02.2","3","16:1n9/i16:0",0,5.627,33.704,1.142498,0.7606,"6.02"
"649",649,"24.02.2","3","16:0",0,61.324,65.97,1.17774,0.755,"6.02"
"650",650,"24.02.2","3","i17:0",0,4.6,-34.182,1.068269,0.76,"6.02"
"651",651,"24.02.2","3","17:0cy",0,15.898,-15.861,1.088312,0.7654,"6.02"
"652",652,"24.02.2","3","17:0",0,12.05,-24.298,1.079084,0.76,"6.02"
"653",653,"24.02.2","3","trans-18:1n9",0,20.011,35.708,1.144688,0.7697,"6.02"
"654",654,"24.02.2","3","18:0",0,14.166,84.86,1.19836,0.7645,"6.02"
"655",655,"24.02.2","3","19:0cy",0,68.678,-24.253,1.079133,0.7736,"6.02"
"656",656,"24.02.2","3","19:0",0,17.33,-30.015,1.072828,0.8216,"6.02"
"657",657,"24.02.2","3","20:4n6",0,1.181,-12.38,1.09212,0.7919,"6.02"
"658",658,"24.02.2","3","20:5n3",0,1.144,-26.588,1.076577,0.797,"6.02"
"659",659,"24.02.3","3","12:0",0,16.424,-30.81,1.071959,0.7285,"6.066"
"660",660,"24.02.3","3","14:0",0,2.528,-13.643,1.090739,0.7432,"6.066"
"661",661,"24.02.3","3","a15:0",0,39.939,-23.023,1.080478,0.7494,"6.066"
"662",662,"24.02.3","3","15:0",0,3.553,-17.605,1.086405,0.7494,"6.066"
"663",663,"24.02.3","3","16:1n9/i16:0",0,5.353,6.948,1.113255,0.7606,"6.066"
"664",664,"24.02.3","3","16:0",0,53.206,14.356,1.121353,0.755,"6.066"
"665",665,"24.02.3","3","i17:0",0,10.309,-31.45,1.071258,0.76,"6.066"
"666",666,"24.02.3","3","17:0cy",0,13.505,-26.508,1.076665,0.7654,"6.066"
"667",667,"24.02.3","3","17:0",0,10.48,-29.26,1.073654,0.76,"6.066"
"668",668,"24.02.3","3","trans-18:1n9",0,21.603,0.32,1.106009,0.7697,"6.066"
"669",669,"24.02.3","3","18:0",0,12.964,17.321,1.124595,0.7645,"6.066"
"670",670,"24.02.3","3","19:0cy",0,68.309,-29.972,1.072875,0.7736,"6.066"
"671",671,"24.02.3","3","19:0",0,17.552,-33.255,1.069283,0.8216,"6.066"
"672",672,"24.02.3","3","20:4n6",0,1.274,-40.574,1.061274,0.7919,"6.066"
"673",673,"28.01.2","2.5","12:0",0,14.165,-30.79,1.07198,0.7285,"6.009"
"674",674,"28.01.2","2.5","14:0",0,1.007,16.909,1.124144,0.7432,"6.009"
"675",675,"28.01.2","2.5","a15:0",0,13.962,-1.432,1.104093,0.7494,"6.009"
"676",676,"28.01.2","2.5","15:0",0,1.597,-5.659,1.099471,0.7494,"6.009"
"677",677,"28.01.2","2.5","16:1n9/i16:0",0,2.141,149.287,1.268625,0.7606,"6.009"
"678",678,"28.01.2","2.5","16:0",0,19.242,43.36,1.153047,0.755,"6.009"
"679",679,"28.01.2","2.5","17:0",0,5.175,-21.555,1.082084,0.76,"6.009"
"680",680,"28.01.2","2.5","trans-18:1n9",0,4.523,79.317,1.192311,0.7697,"6.009"
"681",681,"28.01.2","2.5","18:0",0,4.899,31.951,1.140582,0.7645,"6.009"
"682",682,"28.01.2","2.5","19:0cy",0,23.773,-31.772,1.070905,0.7736,"6.009"
"683",683,"28.01.2","2.5","19:0",0,14.349,-32.647,1.069949,0.8216,"6.009"
"684",684,"28.01.2","2.5","20:4n6",0,0.304,-28.444,1.074547,0.7919,"6.009"
"685",685,"28.01.3","2.5","12:0",0,23.778,-30.193,1.072633,0.7285,"6.015"
"686",686,"28.01.3","2.5","14:0",0,3.155,-17.153,1.0869,0.7432,"6.015"
"687",687,"28.01.3","2.5","a15:0",0,50.296,-19.895,1.083899,0.7494,"6.015"
"688",688,"28.01.3","2.5","15:0",0,5.58,-22.491,1.08106,0.7494,"6.015"
"689",689,"28.01.3","2.5","16:1n9/i16:0",0,6.477,40.893,1.150352,0.7606,"6.015"
"690",690,"28.01.3","2.5","16:0",0,56.155,-18.55,1.085372,0.755,"6.015"
"691",691,"28.01.3","2.5","i17:0",0,9.467,-27.527,1.07555,0.76,"6.015"
"692",692,"28.01.3","2.5","17:0cy",0,14.866,-25.452,1.07782,0.7654,"6.015"
"693",693,"28.01.3","2.5","17:0",0,11.925,-31.623,1.071069,0.76,"6.015"
"694",694,"28.01.3","2.5","trans-18:1n9",0,15.512,-11.014,1.093615,0.7697,"6.015"
"695",695,"28.01.3","2.5","18:0",0,13.504,-19.551,1.084276,0.7645,"6.015"
"696",696,"28.01.3","2.5","19:0cy",0,55.977,-34.193,1.068257,0.7736,"6.015"
"697",697,"28.01.3","2.5","19:0",0,22.379,-32.04,1.070613,0.8216,"6.015"
"698",698,"28.01.3","2.5","20:4n6",0,1.275,-26.889,1.076249,0.7919,"6.015"
"699",699,"28.01.3","2.5","20:5n3",0,1.214,-33.379,1.069148,0.797,"6.015"
"700",700,"03.07.2","3","12:0",0,17.461,-30.823,1.071944,0.7285,"6.051"
"701",701,"03.07.2","3","14:0",0,1.563,0.081,1.105747,0.7432,"6.051"
"702",702,"03.07.2","3","a15:0",0,37.314,-17.423,1.086604,0.7494,"6.051"
"703",703,"03.07.2","3","15:0",0,3.773,-7.887,1.097033,0.7494,"6.051"
"704",704,"03.07.2","3","16:1n9/i16:0",0,3.256,41.474,1.150987,0.7606,"6.051"
"705",705,"03.07.2","3","16:0",0,42.64,79.322,1.192316,0.755,"6.051"
"706",706,"03.07.2","3","i17:0",0,4.631,-33.41,1.069113,0.76,"6.051"
"707",707,"03.07.2","3","17:0cy",0,11.566,-14.838,1.089432,0.7654,"6.051"
"708",708,"03.07.2","3","17:0",0,9.16,-21.894,1.081713,0.76,"6.051"
"709",709,"03.07.2","3","trans-18:1n9",0,13.068,81.546,1.194744,0.7697,"6.051"
"710",710,"03.07.2","3","18:0",0,7.418,134.027,1.251992,0.7645,"6.051"
"711",711,"03.07.2","3","19:0cy",0,55.263,-25.319,1.077966,0.7736,"6.051"
"712",712,"03.07.2","3","19:0",0,18.83,-30.225,1.072599,0.8216,"6.051"
"713",713,"03.07.2","3","20:4n6",0,0.55,8.067,1.114478,0.7919,"6.051"
"714",714,"03.07.2","3","20:5n3",0,1.293,-22.79,1.080733,0.797,"6.051"
"715",715,"03.07.3","2.5","12:0",0,14.647,-30.425,1.072379,0.7285,"6"
"716",716,"03.07.3","2.5","14:0",0,2.183,6.14,1.112371,0.7432,"6"
"717",717,"03.07.3","2.5","a15:0",0,36.978,-15.45,1.088762,0.7494,"6"
"718",718,"03.07.3","2.5","15:0",0,3.589,-4.167,1.101102,0.7494,"6"
"719",719,"03.07.3","2.5","16:1n9/i16:0",0,4.49,31.047,1.139595,0.7606,"6"
"720",720,"03.07.3","2.5","16:0",0,45.948,88.825,1.202688,0.755,"6"
"721",721,"03.07.3","2.5","i17:0",0,5.903,-33.666,1.068833,0.76,"6"
"722",722,"03.07.3","2.5","17:0cy",0,11.487,-18.896,1.084993,0.7654,"6"
"723",723,"03.07.3","2.5","17:0",0,8.411,-22.575,1.080968,0.76,"6"
"724",724,"03.07.3","2.5","trans-18:1n9",0,15.126,65.979,1.17775,0.7697,"6"
"725",725,"03.07.3","2.5","18:0",0,9.212,92.353,1.206537,0.7645,"6"
"726",726,"03.07.3","2.5","19:0cy",0,0.316,-89.631,1.007556,0.7736,"6"
"727",727,"03.07.3","2.5","19:0",0,0.348,-88.9,1.008357,0.8216,"6"
"728",728,"03.07.3","2.5","20:4n6",0,0.559,-55.185,1.045281,0.7919,"6"
"729",729,"34.06.1","3","12:0",0,18.828,-30.774,1.071998,0.7285,"6"
"730",730,"34.06.1","3","14:0",0,5.522,-0.903,1.104671,0.7432,"6"
"731",731,"34.06.1","3","a15:0",0,73.043,-6.397,1.098664,0.7494,"6"
"732",732,"34.06.1","3","15:0",0,7.765,-15.387,1.088831,0.7494,"6"
"733",733,"34.06.1","3","16:1n9/i16:0",0,11.895,81.683,1.194893,0.7606,"6"
"734",734,"34.06.1","3","16:0",0,94.143,0.488,1.106192,0.755,"6"
"735",735,"34.06.1","3","i17:0",0,14.554,-27.702,1.075359,0.76,"6"
"736",736,"34.06.1","3","17:0cy",0,24.718,-19.205,1.084655,0.7654,"6"
"737",737,"34.06.1","3","17:0",0,17.266,-28.567,1.074413,0.76,"6"
"738",738,"34.06.1","3","trans-18:1n9",0,29.493,0.388,1.106083,0.7697,"6"
"739",739,"34.06.1","3","18:0",0,32.64,-6.398,1.098662,0.7645,"6"
"740",740,"34.06.1","3","19:0",0,152.39,-32.437,1.070178,0.8216,"6"
"741",741,"34.06.1","3","20:4n6",0,2.941,-23.466,1.079994,0.7919,"6"
"742",742,"34.06.1","3","20:5n3",0,0.51,-24.537,1.078822,0.797,"6"
"743",743,"34.06.3","2.5","12:0",0,13.612,-30.785,1.071986,0.7285,"6.013"
"744",744,"34.06.3","2.5","14:0",0,2.508,2.88,1.108808,0.7432,"6.013"
"745",745,"34.06.3","2.5","a15:0",0,34.483,-6.188,1.098892,0.7494,"6.013"
"746",746,"34.06.3","2.5","15:0",0,3.415,-15.734,1.088452,0.7494,"6.013"
"747",747,"34.06.3","2.5","16:1n9/i16:0",0,5.798,140.077,1.258586,0.7606,"6.013"
"748",748,"34.06.3","2.5","16:0",0,48.352,5.948,1.112162,0.755,"6.013"
"749",749,"34.06.3","2.5","i17:0",0,7.916,-29.551,1.073336,0.76,"6.013"
"750",750,"34.06.3","2.5","17:0cy",0,12.25,-16.862,1.087218,0.7654,"6.013"
"751",751,"34.06.3","2.5","17:0",0,9.748,-24.679,1.078666,0.76,"6.013"
"752",752,"34.06.3","2.5","trans-18:1n9",0,14.841,-12.219,1.092296,0.7697,"6.013"
"753",753,"34.06.3","2.5","18:0",0,13.555,5.027,1.111155,0.7645,"6.013"
"754",754,"34.06.3","2.5","19:0cy",0,69.264,-32.294,1.070334,0.7736,"6.013"
"755",755,"34.06.3","2.5","19:0",0,14.9,-34.919,1.067462,0.8216,"6.013"
"756",756,"34.06.3","2.5","20:4n6",0,0.977,-29.571,1.073314,0.7919,"6.013"
"757",757,"37.04.1","2.5","12:0",0,13.735,-43.242,1.058353,0.7285,"6.008"
"758",758,"37.04.1","2.5","14:0",0,2.721,-8.449,1.096419,0.7432,"6.008"
"759",759,"37.04.1","2.5","a15:0",0,31.653,-15.47,1.08874,0.7494,"6.008"
"760",760,"37.04.1","2.5","15:0",0,4.043,-21.921,1.081684,0.7494,"6.008"
"761",761,"37.04.1","2.5","16:1n9/i16:0",0,3.878,79.633,1.192655,0.7606,"6.008"
"762",762,"37.04.1","2.5","16:0",0,32.483,6.638,1.112916,0.755,"6.008"
"763",763,"37.04.1","2.5","i17:0",0,5.203,-30.769,1.072003,0.76,"6.008"
"764",764,"37.04.1","2.5","17:0cy",0,9.849,-17.909,1.086072,0.7654,"6.008"
"765",765,"37.04.1","2.5","17:0",0,8.124,-27.002,1.076125,0.76,"6.008"
"766",766,"37.04.1","2.5","trans-18:1n9",0,9.301,64.424,1.176052,0.7697,"6.008"
"767",767,"37.04.1","2.5","18:0",0,8.852,10.132,1.116736,0.7645,"6.008"
"768",768,"37.04.1","2.5","19:0cy",0,31.431,-33.514,1.069,0.7736,"6.008"
"769",769,"37.04.1","2.5","19:0",0,13.261,-32.686,1.069905,0.8216,"6.008"
"770",770,"37.04.1","2.5","20:4n6",0,1.003,-29.525,1.073364,0.7919,"6.008"
"771",771,"37.04.1","2.5","20:5n3",0,1.322,-32.926,1.069643,0.797,"6.008"
"772",772,"37.04.2","2.5","12:0",0,22.236,-43.481,1.058092,0.7285,"6.007"
"773",773,"37.04.2","2.5","14:0",0,3.628,-18.251,1.085698,0.7432,"6.007"
"774",774,"37.04.2","2.5","a15:0",0,62.491,-20.469,1.083272,0.7494,"6.007"
"775",775,"37.04.2","2.5","15:0",0,6.488,-24.619,1.078731,0.7494,"6.007"
"776",776,"37.04.2","2.5","16:1n9/i16:0",0,6.467,13.777,1.12072,0.7606,"6.007"
"777",777,"37.04.2","2.5","16:0",0,68.148,-17.791,1.086202,0.755,"6.007"
"778",778,"37.04.2","2.5","i17:0",0,12.006,-27.534,1.075543,0.76,"6.007"
"779",779,"37.04.2","2.5","17:0cy",0,19.314,-18.729,1.085176,0.7654,"6.007"
"780",780,"37.04.2","2.5","17:0",0,16.106,-30.32,1.072495,0.76,"6.007"
"781",781,"37.04.2","2.5","trans-18:1n9",0,18.54,-16.781,1.087306,0.7697,"6.007"
"782",782,"37.04.2","2.5","18:0",0,13.891,-13.387,1.091018,0.7645,"6.007"
"783",783,"37.04.2","2.5","19:0cy",0,67.101,-33.654,1.068846,0.7736,"6.007"
"784",784,"37.04.2","2.5","19:0",0,22.886,-32.322,1.070304,0.8216,"6.007"
"785",785,"37.04.2","2.5","20:4n6",0,1.342,-33.379,1.069148,0.7919,"6.007"
"786",786,"37.04.2","2.5","20:5n3",0,1.384,-34.489,1.067932,0.797,"6.007"
"787",787,"37.04.3","3","12:0",0,17.125,-30.68,1.072101,0.7285,"5.99"
"788",788,"37.04.3","3","14:0",0,2.673,-11.962,1.092577,0.7432,"5.99"
"789",789,"37.04.3","3","a15:0",0,32.85,-14.116,1.090221,0.7494,"5.99"
"790",790,"37.04.3","3","15:0",0,3.645,-18.464,1.085465,0.7494,"5.99"
"791",791,"37.04.3","3","16:1n9/i16:0",0,5.246,38.604,1.147852,0.7606,"5.99"
"792",792,"37.04.3","3","16:0",0,49.102,-12.058,1.092472,0.755,"5.99"
"793",793,"37.04.3","3","i17:0",0,8.638,-30.583,1.072206,0.76,"5.99"
"794",794,"37.04.3","3","17:0cy",0,11.78,-24.243,1.079143,0.7654,"5.99"
"795",795,"37.04.3","3","17:0",0,10.18,-30.773,1.071999,0.76,"5.99"
"796",796,"37.04.3","3","trans-18:1n9",0,16.024,-16.886,1.087191,0.7697,"5.99"
"797",797,"37.04.3","3","18:0",0,11.758,0.135,1.105806,0.7645,"5.99"
"798",798,"37.04.3","3","19:0cy",0,56.947,-31.68,1.071006,0.7736,"5.99"
"799",799,"37.04.3","3","19:0",0,17.827,-33.986,1.068483,0.8216,"5.99"
"800",800,"37.04.3","3","20:4n6",0,0.993,-38.27,1.063795,0.7919,"5.99"
"801",801,"43.02.1","3","12:0",0,16.381,-30.553,1.07224,0.7285,"6.003"
"802",802,"43.02.1","3","14:0",0,0.333,-20.821,1.082887,0.7432,"6.003"
"803",803,"43.02.1","3","a15:0",0,20.698,-14.183,1.090148,0.7494,"6.003"
"804",804,"43.02.1","3","15:0",0,2.167,-18.1,1.085863,0.7494,"6.003"
"805",805,"43.02.1","3","16:1n9/i16:0",0,3.358,54.281,1.164975,0.7606,"6.003"
"806",806,"43.02.1","3","16:0",0,26.277,-2.534,1.102887,0.755,"6.003"
"807",807,"43.02.1","3","i17:0",0,0.531,-34.187,1.068263,0.76,"6.003"
"808",808,"43.02.1","3","17:0cy",0,7.672,-19.975,1.083812,0.7654,"6.003"
"809",809,"43.02.1","3","17:0",0,6.477,-28.287,1.074718,0.76,"6.003"
"810",810,"43.02.1","3","18:2n9,12 and cis-18:1n9 and 183n3",0,7.375,-13.706,1.09067,0.775,"6.003"
"811",811,"43.02.1","3","18:0",0,6.827,-4.566,1.100665,0.7645,"6.003"
"812",812,"43.02.1","3","19:0cy",0,24.97,-31.671,1.071016,0.7736,"6.003"
"813",813,"43.02.1","3","19:0",0,17.405,-30.734,1.072042,0.8216,"6.003"
"814",814,"43.02.1","3","20:4n6",0,0.433,-31.019,1.07173,0.7919,"6.003"
"815",815,"43.02.2","2.5","12:0",0,15.765,-31.029,1.071719,0.7285,"6.017"
"816",816,"43.02.2","2.5","14:0",0,3.028,-15.426,1.088789,0.7432,"6.017"
"817",817,"43.02.2","2.5","a15:0",0,31.184,-14.737,1.089542,0.7494,"6.017"
"818",818,"43.02.2","2.5","15:0",0,2.77,-20.192,1.083575,0.7494,"6.017"
"819",819,"43.02.2","2.5","16:1n9/i16:0",0,4.47,34.857,1.143758,0.7606,"6.017"
"820",820,"43.02.2","2.5","16:0",0,46.248,3.983,1.110013,0.755,"6.017"
"821",821,"43.02.2","2.5","i17:0",0,5.75,-29.59,1.073293,0.76,"6.017"
"822",822,"43.02.2","2.5","17:0cy",0,10.69,-12.436,1.092059,0.7654,"6.017"
"823",823,"43.02.2","2.5","17:0",0,8.193,-30.309,1.072507,0.76,"6.017"
"824",824,"43.02.2","2.5","trans-18:1n9",0,11.91,21.36,1.129009,0.7697,"6.017"
"825",825,"43.02.2","2.5","18:0",0,9.569,-4.497,1.100741,0.7645,"6.017"
"826",826,"43.02.2","2.5","19:0cy",0,35.01,-33.216,1.069325,0.7736,"6.017"
"827",827,"43.02.2","2.5","19:0",0,15.52,-34.08,1.06838,0.8216,"6.017"
"828",828,"43.02.2","2.5","20:4n6",0,0.748,-9.638,1.095119,0.7919,"6.017"
"829",829,"43.02.3","2.5","12:0",0,23.491,-30.017,1.072826,0.7285,"6"
"830",830,"43.02.3","2.5","14:0",0,2.588,-26.627,1.076535,0.7432,"6"
"831",831,"43.02.3","2.5","a15:0",0,37.683,-28.149,1.07487,0.7494,"6"
"832",832,"43.02.3","2.5","15:0",0,5.01,-28.309,1.074695,0.7494,"6"
"833",833,"43.02.3","2.5","16:1n9/i16:0",0,5.567,-22.387,1.081173,0.7606,"6"
"834",834,"43.02.3","2.5","16:0",0,53.905,-28.335,1.074667,0.755,"6"
"835",835,"43.02.3","2.5","i17:0",0,3.305,-30.222,1.072602,0.76,"6"
"836",836,"43.02.3","2.5","17:0cy",0,12.814,-28.911,1.074036,0.7654,"6"
"837",837,"43.02.3","2.5","17:0",0,10.403,-31.708,1.070976,0.76,"6"
"838",838,"43.02.3","2.5","trans-18:1n9",0,17.354,-28.274,1.074734,0.7697,"6"
"839",839,"43.02.3","2.5","18:0",0,12.288,-31.324,1.071396,0.7645,"6"
"840",840,"43.02.3","2.5","19:0cy",0,64.964,-32.807,1.069773,0.7736,"6"
"841",841,"43.02.3","2.5","19:0",0,23.077,-32.806,1.069774,0.8216,"6"
"842",842,"43.02.3","2.5","20:4n6",0,0.812,-40.135,1.061754,0.7919,"6"
"843",843,"43.02.3","2.5","20:5n3",0,0.368,-33.895,1.068582,0.797,"6"
"844",844,"46.03.2","3","12:0",0,15.689,-30.206,1.072619,0.7285,"6.006"
"845",845,"46.03.2","3","14:0",0,0.653,-15.731,1.088455,0.7432,"6.006"
"846",846,"46.03.2","3","a15:0",0,40.575,8.925,1.115417,0.7494,"6.006"
"847",847,"46.03.2","3","15:0",0,4.64,22.225,1.129954,0.7494,"6.006"
"848",848,"46.03.2","3","16:1n9/i16:0",0,4.341,183.316,1.305697,0.7606,"6.006"
"849",849,"46.03.2","3","16:0",0,41.391,198.61,1.32235,0.755,"6.006"
"850",850,"46.03.2","3","i17:0",0,6.39,-28.739,1.074224,0.76,"6.006"
"851",851,"46.03.2","3","17:0cy",0,11.677,13.486,1.120402,0.7654,"6.006"
"852",852,"46.03.2","3","17:0",0,9.093,-4.249,1.101013,0.76,"6.006"
"853",853,"46.03.2","3","trans-18:1n9",0,13.16,167.731,1.288721,0.7697,"6.006"
"854",854,"46.03.2","3","18:0",0,10.587,264.65,1.394192,0.7645,"6.006"
"855",855,"46.03.2","3","19:0cy",0,51.421,-3.333,1.102014,0.7736,"6.006"
"856",856,"46.03.2","3","19:0",0,16.527,-26.643,1.076518,0.8216,"6.006"
"857",857,"46.03.2","3","20:4n6",0,1.474,30.038,1.138492,0.7919,"6.006"
"858",858,"46.03.2","3","20:5n3",0,1.592,-6.643,1.098394,0.797,"6.006"
"859",859,"46.03.3","3","12:0",0,16.264,-31.205,1.071526,0.7285,"6.003"
"860",860,"46.03.3","3","14:0",0,2.7,2.33,1.108206,0.7432,"6.003"
"861",861,"46.03.3","3","a15:0",0,40.212,-7.226,1.097757,0.7494,"6.003"
"862",862,"46.03.3","3","15:0",0,5.307,-9.038,1.095775,0.7494,"6.003"
"863",863,"46.03.3","3","16:1n9/i16:0",0,6.608,53.026,1.163605,0.7606,"6.003"
"864",864,"46.03.3","3","16:0",0,52.741,60.202,1.171441,0.755,"6.003"
"865",865,"46.03.3","3","i17:0",0,1.895,-28.851,1.074102,0.76,"6.003"
"866",866,"46.03.3","3","17:0cy",0,14.911,-13.822,1.090542,0.7654,"6.003"
"867",867,"46.03.3","3","17:0",0,12.609,-19.895,1.083899,0.76,"6.003"
"868",868,"46.03.3","3","18:2n9,12 and cis-18:1n9 and 183n3",0,17.373,27.88,1.136134,0.775,"6.003"
"869",869,"46.03.3","3","trans-18:1n9",0,15.129,67.854,1.179797,0.7697,"6.003"
"870",870,"46.03.3","3","18:0",0,2.48,3.92,1.109944,0.7645,"6.003"
"871",871,"46.03.3","3","19:0cy",0,62.487,-21.165,1.082511,0.7736,"6.003"
"872",872,"46.03.3","3","19:0",0,18.624,-30.44,1.072363,0.8216,"6.003"
"873",873,"46.03.3","3","20:4n6",0,0.837,-16.363,1.087763,0.7919,"6.003"
"874",874,"46.03.3","3","20:5n3",0,1.165,-28.543,1.074439,0.797,"6.003"
"875",875,"48.01.1","2.5","12:0",0,13.373,-30.751,1.072023,0.7285,"6.072"
"876",876,"48.01.1","2.5","14:0",0,2.164,-11.303,1.093298,0.7432,"6.072"
"877",877,"48.01.1","2.5","a15:0",0,23.026,-12.915,1.091535,0.7494,"6.072"
"878",878,"48.01.1","2.5","15:0",0,2.543,-19.936,1.083855,0.7494,"6.072"
"879",879,"48.01.1","2.5","16:1n9/i16:0",0,4.229,34.065,1.142892,0.7606,"6.072"
"880",880,"48.01.1","2.5","16:0",0,38.317,-9.768,1.094977,0.755,"6.072"
"881",881,"48.01.1","2.5","i17:0",0,4.833,-28.5,1.074486,0.76,"6.072"
"882",882,"48.01.1","2.5","17:0cy",0,8.13,-18.835,1.08506,0.7654,"6.072"
"883",883,"48.01.1","2.5","17:0",0,6.753,-27.595,1.075476,0.76,"6.072"
"884",884,"48.01.1","2.5","trans-18:1n9",0,12.276,-20.016,1.083768,0.7697,"6.072"
"885",885,"48.01.1","2.5","18:0",0,9.293,-0.511,1.1051,0.7645,"6.072"
"886",886,"48.01.1","2.5","19:0cy",0,39.024,-29.295,1.073616,0.7736,"6.072"
"887",887,"48.01.1","2.5","19:0",0,13.078,-33.528,1.068984,0.8216,"6.072"
"888",888,"48.01.1","2.5","20:4n6",0,0.629,-37.427,1.064718,0.7919,"6.072"
"889",889,"48.01.1","2.5","20:5n3",0,2.688,-34.837,1.067552,0.797,"6.072"
"890",890,"48.01.3","2.5","12:0",0,22.727,-29.68,1.073195,0.7285,"6.032"
"891",891,"48.01.3","2.5","14:0",0,4.647,-19.945,1.083845,0.7432,"6.032"
"892",892,"48.01.3","2.5","a15:0",0,64.204,-21.279,1.082386,0.7494,"6.032"
"893",893,"48.01.3","2.5","15:0",0,7.354,-23.707,1.079729,0.7494,"6.032"
"894",894,"48.01.3","2.5","16:1n9/i16:0",0,7.922,30.06,1.138517,0.7606,"6.032"
"895",895,"48.01.3","2.5","16:0",0,71.754,-12.767,1.091696,0.755,"6.032"
"896",896,"48.01.3","2.5","17:0cy",0,16.667,-22.389,1.081171,0.7654,"6.032"
"897",897,"48.01.3","2.5","17:0",0,12.276,-28.66,1.074311,0.76,"6.032"
"898",898,"48.01.3","2.5","trans-18:1n9",0,23.343,-13.915,1.090441,0.7697,"6.032"
"899",899,"48.01.3","2.5","18:0",0,17.294,-8.01,1.0969,0.7645,"6.032"
"900",900,"48.01.3","2.5","19:0cy",0,72.254,-33.353,1.069176,0.7736,"6.032"
"901",901,"48.01.3","2.5","19:0",0,20.847,-32.267,1.070364,0.8216,"6.032"
"902",902,"48.01.3","2.5","20:4n6",0,1.702,-20.693,1.083027,0.7919,"6.032"
"903",903,"48.01.3","2.5","20:5n3",0,2.615,-27.828,1.075221,0.797,"6.032"
"904",904,"05.03.1","3","12:0",0,0.824,-29.694,1.073179,0.7285,"6.009"
"905",905,"05.03.1","3","14:0",0,0.198,-17.398,1.086631,0.7432,"6.009"
"906",906,"05.03.1","3","a15:0",0,18.554,-5.877,1.099232,0.7494,"6.009"
"907",907,"05.03.1","3","15:0",0,2.232,19.477,1.126951,0.7494,"6.009"
"908",908,"05.03.1","3","16:1n9/i16:0",0,2.478,87.028,1.200726,0.7606,"6.009"
"909",909,"05.03.1","3","16:0",0,35.978,175.047,1.296691,0.755,"6.009"
"910",910,"05.03.1","3","i17:0",0,3.69,-31.48,1.071225,0.76,"6.009"
"911",911,"05.03.1","3","17:0cy",0,12.06,-0.153,1.105491,0.7654,"6.009"
"912",912,"05.03.1","3","17:0",0,10.471,-11.675,1.092891,0.76,"6.009"
"913",913,"05.03.1","3","trans-18:1n9",0,11.63,152.802,1.272456,0.7697,"6.009"
"914",914,"05.03.1","3","18:0",0,7.108,215.253,1.340465,0.7645,"6.009"
"915",915,"05.03.1","3","19:0cy",0,50.615,-18.28,1.085666,0.7736,"6.009"
"916",916,"05.03.1","3","19:0",0,15.286,-28.824,1.074132,0.8216,"6.009"
"917",917,"05.03.1","3","20:4n6",0,0.48,-31.467,1.07124,0.7919,"6.009"
"918",918,"05.03.1","3","20:5n3",0,1.048,-28.099,1.074924,0.797,"6.009"
"919",919,"05.03.2","3","12:0",0,12.478,-30.652,1.072132,0.7285,"6.034"
"920",920,"05.03.2","3","14:0",0,1.347,105.379,1.220749,0.7432,"6.034"
"921",921,"05.03.2","3","a15:0",0,30.818,2.112,1.107968,0.7494,"6.034"
"922",922,"05.03.2","3","15:0",0,3.002,32.098,1.140743,0.7494,"6.034"
"923",923,"05.03.2","3","16:1n9/i16:0",0,3.317,159.072,1.279287,0.7606,"6.034"
"924",924,"05.03.2","3","16:0",0,35.485,162.492,1.283014,0.755,"6.034"
"925",925,"05.03.2","3","i17:0",0,3.673,-27.818,1.075232,0.76,"6.034"
"926",926,"05.03.2","3","17:0cy",0,8.931,5.552,1.111729,0.7654,"6.034"
"927",927,"05.03.2","3","17:0",0,7.549,-7.999,1.096911,0.76,"6.034"
"928",928,"05.03.2","3","trans-18:1n9",0,10.122,135.773,1.253894,0.7697,"6.034"
"929",929,"05.03.2","3","18:0",0,9.152,171.91,1.293274,0.7645,"6.034"
"930",930,"05.03.2","3","19:0cy",0,32.337,-11.901,1.092644,0.7736,"6.034"
"931",931,"05.03.2","3","19:0",0,13.364,-28.463,1.074527,0.8216,"6.034"
"932",932,"05.03.2","3","20:4n6",0,0.287,181.974,1.304235,0.7919,"6.034"
"933",933,"05.03.2","3","20:5n3",0,0.898,4.357,1.110422,0.797,"6.034"
"934",934,"05.03.3","2.5","14:0",0,0.508,-15.761,1.088422,0.7432,"6.004"
"935",935,"05.03.3","2.5","a15:0",0,17.008,-27.492,1.075589,0.7494,"6.004"
"936",936,"05.03.3","2.5","15:0",0,2.025,-18.612,1.085303,0.7494,"6.004"
"937",937,"05.03.3","2.5","16:1n9/i16:0",0,2.739,-10.624,1.094041,0.7606,"6.004"
"938",938,"05.03.3","2.5","16:0",0,33.382,21.513,1.129176,0.755,"6.004"
"939",939,"05.03.3","2.5","i17:0",0,3.033,-32.706,1.069884,0.76,"6.004"
"940",940,"05.03.3","2.5","17:0cy",0,9.214,-26.385,1.0768,0.7654,"6.004"
"941",941,"05.03.3","2.5","17:0",0,7.353,-28.941,1.074003,0.76,"6.004"
"942",942,"05.03.3","2.5","trans-18:1n9",0,12.884,4.012,1.110045,0.7697,"6.004"
"943",943,"05.03.3","2.5","18:0",0,8.308,14.881,1.121928,0.7645,"6.004"
"944",944,"05.03.3","2.5","19:0cy",0,41.784,-31.694,1.070991,0.7736,"6.004"
"945",945,"05.03.3","2.5","19:0",0,12.188,-34.021,1.068444,0.8216,"6.004"
"946",946,"05.03.3","2.5","20:5n3",0,0.838,-32.271,1.070359,0.797,"6.004"
"947",947,"05.09.2","3","12:0",0,2.627,-30.798,1.071971,0.7285,"6.032"
"948",948,"05.09.2","3","14:0",0,1.286,14.483,1.121492,0.7432,"6.032"
"949",949,"05.09.2","3","a15:0",0,29.307,-5.621,1.099512,0.7494,"6.032"
"950",950,"05.09.2","3","15:0",0,2.968,-0.573,1.105032,0.7494,"6.032"
"951",951,"05.09.2","3","16:1n9/i16:0",0,4.412,62.396,1.173838,0.7606,"6.032"
"952",952,"05.09.2","3","16:0",0,37.884,97.606,1.212269,0.755,"6.032"
"953",953,"05.09.2","3","i17:0",0,3.573,-30.847,1.071918,0.76,"6.032"
"954",954,"05.09.2","3","17:0cy",0,11.585,-5.125,1.100054,0.7654,"6.032"
"955",955,"05.09.2","3","17:0",0,9.175,-17.209,1.086838,0.76,"6.032"
"956",956,"05.09.2","3","trans-18:1n9",0,12.224,76.229,1.188939,0.7697,"6.032"
"957",957,"05.09.2","3","18:0",0,8.444,137.176,1.255424,0.7645,"6.032"
"958",958,"05.09.2","3","19:0cy",0,40.695,-14.479,1.089824,0.7736,"6.032"
"959",959,"05.09.2","3","19:0",0,13.471,-29.25,1.073665,0.8216,"6.032"
"960",960,"05.09.2","3","20:4n6",0,0.458,-21.45,1.082199,0.7919,"6.032"
"961",961,"05.09.2","3","20:5n3",0,2.122,-30.417,1.072389,0.797,"6.032"
"962",962,"05.09.3","3","12:0",0,2.029,-30.642,1.072142,0.7285,"6.007"
"963",963,"05.09.3","3","14:0",0,0.965,0.993,1.106744,0.7432,"6.007"
"964",964,"05.09.3","3","a15:0",0,18.402,-12.866,1.091589,0.7494,"6.007"
"965",965,"05.09.3","3","15:0",0,2.544,-7.85,1.097074,0.7494,"6.007"
"966",966,"05.09.3","3","16:1n9/i16:0",0,3.245,16.29,1.123467,0.7606,"6.007"
"967",967,"05.09.3","3","16:0",0,33.207,50.719,1.161085,0.755,"6.007"
"968",968,"05.09.3","3","i17:0",0,0.934,-35.852,1.066442,0.76,"6.007"
"969",969,"05.09.3","3","17:0cy",0,9.161,-17.878,1.086106,0.7654,"6.007"
"970",970,"05.09.3","3","17:0",0,7.945,-22.845,1.080672,0.76,"6.007"
"971",971,"05.09.3","3","trans-18:1n9",0,12.663,25.232,1.13324,0.7697,"6.007"
"972",972,"05.09.3","3","18:0",0,8.879,57.193,1.168156,0.7645,"6.007"
"973",973,"05.09.3","3","19:0cy",0,41.509,-23.498,1.079959,0.7736,"6.007"
"974",974,"05.09.3","3","19:0",0,14.446,-31.595,1.0711,0.8216,"6.007"
"975",975,"05.09.3","3","20:4n6",0,0.331,-30.674,1.072108,0.7919,"6.007"
"976",976,"05.09.3","3","20:5n3",0,0.468,-29.119,1.073809,0.797,"6.007"
"977",977,"52.04.2","2.5","12:0",0,14.219,-31.311,1.07141,0.7285,"6.007"
"978",978,"52.04.2","2.5","14:0",0,1.588,-13.51,1.090884,0.7432,"6.007"
"979",979,"52.04.2","2.5","a15:0",0,21.771,-18.062,1.085905,0.7494,"6.007"
"980",980,"52.04.2","2.5","15:0",0,3.03,-20.847,1.082859,0.7494,"6.007"
"981",981,"52.04.2","2.5","16:1n9/i16:0",0,1.973,133.997,1.251959,0.7606,"6.007"
"982",982,"52.04.2","2.5","16:0",0,19.054,19.599,1.127084,0.755,"6.007"
"983",983,"52.04.2","2.5","i17:0",0,5.006,-31.277,1.071447,0.76,"6.007"
"984",984,"52.04.2","2.5","17:0cy",0,6.002,-12.268,1.092243,0.7654,"6.007"
"985",985,"52.04.2","2.5","17:0",0,5.274,-24.949,1.078371,0.76,"6.007"
"986",986,"52.04.2","2.5","trans-18:1n9",0,5.197,-19.769,1.084037,0.7697,"6.007"
"987",987,"52.04.2","2.5","18:0",0,4.394,12.967,1.119835,0.7645,"6.007"
"988",988,"52.04.2","2.5","19:0cy",0,18.007,-32.751,1.069834,0.7736,"6.007"
"989",989,"52.04.2","2.5","19:0",0,13.834,-32.223,1.070412,0.8216,"6.007"
"990",990,"52.04.2","2.5","20:5n3",0,1.497,-32.997,1.069565,0.797,"6.007"
"991",991,"52.04.1","2.5","12:0",0,15.317,-30.726,1.07205,0.7285,"6"
"992",992,"52.04.1","2.5","14:0",0,1.567,-5.138,1.10004,0.7432,"6"
"993",993,"52.04.1","2.5","a15:0",0,24.677,-12.199,1.092318,0.7494,"6"
"994",994,"52.04.1","2.5","15:0",0,2.776,-16.679,1.087418,0.7494,"6"
"995",995,"52.04.1","2.5","16:1n9/i16:0",0,3.14,89.508,1.203433,0.7606,"6"
"996",996,"52.04.1","2.5","16:0",0,29.994,-1.423,1.104103,0.755,"6"
"997",997,"52.04.1","2.5","i17:0",0,2.286,-32.572,1.070031,0.76,"6"
"998",998,"52.04.1","2.5","17:0cy",0,8.985,-16.852,1.087228,0.7654,"6"
"999",999,"52.04.1","2.5","17:0",0,7.513,-27.83,1.075219,0.76,"6"
"1000",1000,"52.04.1","2.5","trans-18:1n9",0,7.697,-20.091,1.083686,0.7697,"6"
"1001",1001,"52.04.1","2.5","18:0",0,7.102,2.443,1.10833,0.7645,"6"
"1002",1002,"52.04.1","2.5","19:0cy",0,38.337,-32.15,1.070492,0.7736,"6"
"1003",1003,"52.04.1","2.5","19:0",0,16.143,-32.864,1.069711,0.8216,"6"
"1004",1004,"52.04.3","2","12:0",0,12.355,-30.77,1.072002,0.7285,"6.054"
"1005",1005,"52.04.3","2","14:0",0,0.845,25.791,1.133851,0.7432,"6.054"
"1006",1006,"52.04.3","2","a15:0",0,10.6,23.996,1.13189,0.7494,"6.054"
"1007",1007,"52.04.3","2","15:0",0,1.376,8.953,1.115447,0.7494,"6.054"
"1008",1008,"52.04.3","2","16:1n9/i16:0",0,1.786,411.855,1.553954,0.7606,"6.054"
"1009",1009,"52.04.3","2","16:0",0,16.661,73.434,1.185889,0.755,"6.054"
"1010",1010,"52.04.3","2","i17:0",0,0.364,-41.099,1.060699,0.76,"6.054"
"1011",1011,"52.04.3","2","17:0cy",0,4.409,4.471,1.110548,0.7654,"6.054"
"1012",1012,"52.04.3","2","17:0",0,1.303,442.922,1.587605,0.76,"6.054"
"1013",1013,"52.04.3","2","trans-18:1n9",0,6.182,11.195,1.117898,0.7697,"6.054"
"1014",1014,"52.04.3","2","18:0",0,4.183,288.586,1.420205,0.7645,"6.054"
"1015",1015,"52.04.3","2","19:0cy",0,13.561,-28.906,1.074041,0.7736,"6.054"
"1016",1016,"52.04.3","2","19:0",0,11.931,-31.422,1.071288,0.8216,"6.054"
"1017",1017,"52.04.3","2","20:4n6",0,1.479,-23.429,1.080034,0.7919,"6.054"
"1018",1018,"52.04.3","2","20:5n3",0,0.441,-28.237,1.074773,0.797,"6.054"
"1019",1019,"55.11.1","2.5","12:0",0,15.525,-30.794,1.071975,0.7285,"6.012"
"1020",1020,"55.11.1","2.5","14:0",0,1.551,15.202,1.122278,0.7432,"6.012"
"1021",1021,"55.11.1","2.5","a15:0",0,25.172,-6.832,1.098188,0.7494,"6.012"
"1022",1022,"55.11.1","2.5","15:0",0,2.589,-10.299,1.094396,0.7494,"6.012"
"1023",1023,"55.11.1","2.5","16:1n9/i16:0",0,3.676,97.322,1.211959,0.7606,"6.012"
"1024",1024,"55.11.1","2.5","16:0",0,33.021,17.184,1.124445,0.755,"6.012"
"1025",1025,"55.11.1","2.5","i17:0",0,5.575,-28.233,1.074778,0.76,"6.012"
"1026",1026,"55.11.1","2.5","17:0cy",0,8.971,-16.221,1.087919,0.7654,"6.012"
"1027",1027,"55.11.1","2.5","17:0",0,7.45,-21.873,1.081737,0.76,"6.012"
"1028",1028,"55.11.1","2.5","trans-18:1n9",0,11.84,-6.292,1.098778,0.7697,"6.012"
"1029",1029,"55.11.1","2.5","18:0",0,7.715,25.944,1.134019,0.7645,"6.012"
"1030",1030,"55.11.1","2.5","19:0cy",0,35.404,-32.314,1.070312,0.7736,"6.012"
"1031",1031,"55.11.1","2.5","19:0",0,15.532,-32.782,1.069801,0.8216,"6.012"
"1032",1032,"55.11.1","2.5","20:4n6",0,0.275,-36.994,1.065191,0.7919,"6.012"
"1033",1033,"55.11.1","2.5","20:5n3",0,0.382,-22.413,1.081145,0.797,"6.012"
"1034",1034,"55.11.2","2.5","12:0",0,26.657,-30.448,1.072355,0.7285,"6"
"1035",1035,"55.11.2","2.5","14:0",0,3.138,-3.161,1.102202,0.7432,"6"
"1036",1036,"55.11.2","2.5","a15:0",0,50.435,-3.35,1.101995,0.7494,"6"
"1037",1037,"55.11.2","2.5","15:0",0,5.83,-13.179,1.091246,0.7494,"6"
"1038",1038,"55.11.2","2.5","16:1n9/i16:0",0,7.637,70.347,1.182518,0.7606,"6"
"1039",1039,"55.11.2","2.5","16:0",0,65.621,-8.777,1.096061,0.755,"6"
"1040",1040,"55.11.2","2.5","i17:0",0,3.28,-27.813,1.075237,0.76,"6"
"1041",1041,"55.11.2","2.5","17:0cy",0,17.758,-17.578,1.086435,0.7654,"6"
"1042",1042,"55.11.2","2.5","17:0",0,13.887,-28.413,1.074581,0.76,"6"
"1043",1043,"55.11.2","2.5","trans-18:1n9",0,22.858,-14.966,1.089292,0.7697,"6"
"1044",1044,"55.11.2","2.5","18:0",0,15.874,4.075,1.110114,0.7645,"6"
"1045",1045,"55.11.2","2.5","19:0cy",0,77.63,-32.033,1.07062,0.7736,"6"
"1046",1046,"55.11.2","2.5","19:0",0,26.038,-32.649,1.069946,0.8216,"6"
"1047",1047,"55.11.2","2.5","20:4n6",0,0.628,-33.25,1.069288,0.7919,"6"
"1048",1048,"55.11.2","2.5","20:5n3",0,0.396,-32.403,1.070215,0.797,"6"
"1049",1049,"58.05.2","3","12:0",0,15.687,-30.489,1.072309,0.7285,"6.064"
"1050",1050,"58.05.2","3","14:0",0,2.191,26.225,1.134325,0.7432,"6.064"
"1051",1051,"58.05.2","3","a15:0",0,40.886,-3.452,1.101884,0.7494,"6.064"
"1052",1052,"58.05.2","3","15:0",0,4.53,9.435,1.115974,0.7494,"6.064"
"1053",1053,"58.05.2","3","16:1n9/i16:0",0,5.692,73.777,1.186263,0.7606,"6.064"
"1054",1054,"58.05.2","3","16:0",0,53.366,163.267,1.283859,0.755,"6.064"
"1055",1055,"58.05.2","3","i17:0",0,4.644,-33.938,1.068536,0.76,"6.064"
"1056",1056,"58.05.2","3","17:0cy",0,13.989,-5.646,1.099484,0.7654,"6.064"
"1057",1057,"58.05.2","3","17:0",0,10.674,-14.25,1.090074,0.76,"6.064"
"1058",1058,"58.05.2","3","trans-18:1n9",0,18.162,97.179,1.211804,0.7697,"6.064"
"1059",1059,"58.05.2","3","18:0",0,13.008,147.924,1.267139,0.7645,"6.064"
"1060",1060,"58.05.2","3","19:0cy",0,60.666,-15.053,1.089196,0.7736,"6.064"
"1061",1061,"58.05.2","3","19:0",0,18.057,-27.339,1.075756,0.8216,"6.064"
"1062",1062,"58.05.2","3","20:4n6",0,1.242,-27.903,1.075139,0.7919,"6.064"
"1063",1063,"58.05.2","3","20:5n3",0,1.54,-31.544,1.071155,0.797,"6.064"
"1064",1064,"58.05.3","3","12:0",0,15.705,-31.365,1.071351,0.7285,"6.03"
"1065",1065,"58.05.3","3","14:0",0,3.856,21.716,1.129398,0.7432,"6.03"
"1066",1066,"58.05.3","3","a15:0",0,57.757,-0.778,1.104808,0.7494,"6.03"
"1067",1067,"58.05.3","3","15:0",0,7.883,9.081,1.115587,0.7494,"6.03"
"1068",1068,"58.05.3","3","16:1n9/i16:0",0,10.253,61.27,1.172608,0.7606,"6.03"
"1069",1069,"58.05.3","3","16:0",0,92.042,121.123,1.237921,0.755,"6.03"
"1070",1070,"58.05.3","3","i17:0",0,12.073,-28.445,1.074546,0.76,"6.03"
"1071",1071,"58.05.3","3","17:0cy",0,20.651,-11.488,1.093096,0.7654,"6.03"
"1072",1072,"58.05.3","3","17:0",0,15.707,-13.847,1.090515,0.76,"6.03"
"1073",1073,"58.05.3","3","trans-18:1n9",0,38.595,68.976,1.181022,0.7697,"6.03"
"1074",1074,"58.05.3","3","18:0",0,25.502,102.955,1.218105,0.7645,"6.03"
"1075",1075,"58.05.3","3","19:0cy",0,99.935,-22.899,1.080614,0.7736,"6.03"
"1076",1076,"58.05.3","3","19:0",0,19.342,-32.19,1.070449,0.8216,"6.03"
"1077",1077,"58.05.3","3","20:4n6",0,1.828,-37.299,1.064857,0.7919,"6.03"
"1078",1078,"58.05.3","3","20:5n3",0,0.908,-34.613,1.067797,0.797,"6.03"
"1079",1079,"58.05.1","3ul","12:0",0,17.027,-31.293,1.07143,0.7285,"6.03"
"1080",1080,"58.05.1","3ul","14:0",0,3.3,-26.815,1.076329,0.7432,"6.03"
"1081",1081,"58.05.1","3ul","a15:0",0,4.016,15.313,1.122399,0.7494,"6.03"
"1082",1082,"58.05.1","3ul","15:0",0,4.01,-25.167,1.078132,0.7494,"6.03"
"1083",1083,"58.05.1","3ul","16:1n9/i16:0",0,9.105,42.92,1.152567,0.7606,"6.03"
"1084",1084,"58.05.1","3ul","16:0",0,90.064,110.384,1.226209,0.755,"6.03"
"1085",1085,"58.05.1","3ul","i17:0",0,11.07,-26.268,1.076928,0.76,"6.03"
"1086",1086,"58.05.1","3ul","17:0cy",0,11.05,4.247,1.110302,0.7654,"6.03"
"1087",1087,"58.05.1","3ul","17:0",0,15.412,-10.661,1.094,0.76,"6.03"
"1088",1088,"58.05.1","3ul","trans-18:1n9",0,34.67,62.569,1.174026,0.7697,"6.03"
"1089",1089,"58.05.1","3ul","18:0",0,21.082,83.308,1.196666,0.7645,"6.03"
"1090",1090,"58.05.1","3ul","19:0cy",0,106.872,-16.473,1.087643,0.7736,"6.03"
"1091",1091,"58.05.1","3ul","19:0",0,21.118,-28.396,1.074599,0.8216,"6.03"
"1092",1092,"58.05.1","3ul","20:4n6",0,1.887,-28.757,1.074205,0.7919,"6.03"
"1093",1093,"58.05.1","3ul","20:5n3",0,0.581,-30.051,1.072789,0.797,"6.03"
"1094",1094,"06.06.1","2.5","12:0",0,14.134,-30.734,1.072041,0.7285,"6"
"1095",1095,"06.06.1","2.5","14:0",0,2.026,14.499,1.12151,0.7432,"6"
"1096",1096,"06.06.1","2.5","a15:0",0,36.95,-3.967,1.10132,0.7494,"6"
"1097",1097,"06.06.1","2.5","15:0",0,3.797,4.312,1.110373,0.7494,"6"
"1098",1098,"06.06.1","2.5","16:1n9/i16:0",0,5.981,56.91,1.167847,0.7606,"6"
"1099",1099,"06.06.1","2.5","16:0",0,49.87,74.299,1.186833,0.755,"6"
"1100",1100,"06.06.1","2.5","i17:0",0,2.236,-33.986,1.068483,0.76,"6"
"1101",1101,"06.06.1","2.5","17:0cy",0,13.331,-7.979,1.096933,0.7654,"6"
"1102",1102,"06.06.1","2.5","17:0",0,8.715,-12.665,1.091808,0.76,"6"
"1103",1103,"06.06.1","2.5","trans-18:1n9",0,14.125,75.172,1.187786,0.7697,"6"
"1104",1104,"06.06.1","2.5","18:0",0,14.333,77.916,1.190781,0.7645,"6"
"1105",1105,"06.06.1","2.5","19:0cy",0,69.335,-19.698,1.084115,0.7736,"6"
"1106",1106,"06.06.1","2.5","19:0",0,15.946,-31.574,1.071123,0.8216,"6"
"1107",1107,"06.06.1","2.5","20:4n6",0,0.873,62.254,1.173683,0.7919,"6"
"1108",1108,"06.06.1","2.5","20:5n3",0,0.585,28.207,1.136492,0.797,"6"
"1109",1109,"06.06.2","2.5","12:0",0,16.245,-30.75,1.072024,0.7285,"6"
"1110",1110,"06.06.2","2.5","14:0",0,0.816,9.471,1.116013,0.7432,"6"
"1111",1111,"06.06.2","2.5","a15:0",0,11.641,-4.384,1.100864,0.7494,"6"
"1112",1112,"06.06.2","2.5","15:0",0,1.52,10.444,1.117077,0.7494,"6"
"1113",1113,"06.06.2","2.5","16:1n9/i16:0",0,1.547,56.604,1.167513,0.7606,"6"
"1114",1114,"06.06.2","2.5","16:0",0,16.068,145.927,1.264963,0.755,"6"
"1115",1115,"06.06.2","2.5","i17:0",0,4.085,-34.106,1.068352,0.76,"6"
"1116",1116,"06.06.2","2.5","17:0cy",0,4.003,-6.73,1.098299,0.7654,"6"
"1117",1117,"06.06.2","2.5","17:0",0,2.705,-5.835,1.099278,0.76,"6"
"1118",1118,"06.06.2","2.5","18:2n9,12 and cis-18:1n9 and 183n3",0,4.612,103.182,1.218353,0.775,"6"
"1119",1119,"06.06.2","2.5","18:0",0,3.789,184.118,1.306571,0.7645,"6"
"1120",1120,"06.06.2","2.5","19:0cy",0,19.499,-13.368,1.091039,0.7736,"6"
"1121",1121,"06.06.2","2.5","19:0",0,14.806,-31.556,1.071142,0.8216,"6"
"1122",1122,"06.06.3","3","12:0",0,18.35,-31.704,1.07098,0.7285,"6"
"1123",1123,"06.06.3","3","14:0",0,4.141,2.997,1.108935,0.7432,"6"
"1124",1124,"06.06.3","3","a15:0",0,69.809,-11.002,1.093627,0.7494,"6"
"1125",1125,"06.06.3","3","15:0",0,7.275,-0.529,1.10508,0.7494,"6"
"1126",1126,"06.06.3","3","16:1n9/i16:0",0,10.943,17.556,1.124851,0.7606,"6"
"1127",1127,"06.06.3","3","16:0",0,100.719,40.7,1.150141,0.755,"6"
"1128",1128,"06.06.3","3","i17:0",0,21.571,-31.603,1.07109,0.76,"6"
"1129",1129,"06.06.3","3","17:0cy",0,22.148,-16.963,1.087107,0.7654,"6"
"1130",1130,"06.06.3","3","17:0",0,16.083,-24.209,1.07918,0.76,"6"
"1131",1131,"06.06.3","3","trans-18:1n9",0,37.202,15.617,1.122731,0.7697,"6"
"1132",1132,"06.06.3","3","18:0",0,29.991,38.675,1.147929,0.7645,"6"
"1133",1133,"06.06.3","3","19:0cy",0,132.968,-26.068,1.077146,0.7736,"6"
"1134",1134,"06.06.3","3","19:0",0,21.476,-31.874,1.070794,0.8216,"6"
"1135",1135,"06.06.3","3","20:4n6",0,2.194,-30.582,1.072207,0.7919,"6"
"1136",1136,"06.06.3","3","20:5n3",0,0.529,-29.55,1.073337,0.797,"6"
"1137",1137,"63.04.2","3","12:0",0,18.899,-30.844,1.071921,0.7285,"6"
"1138",1138,"63.04.2","3","14:0",0,2.342,26.625,1.134763,0.7432,"6"
"1139",1139,"63.04.2","3","a15:0",0,46.802,-4.347,1.100906,0.7494,"6"
"1140",1140,"63.04.2","3","15:0",0,4.29,6.125,1.112355,0.7494,"6"
"1141",1141,"63.04.2","3","16:1n9/i16:0",0,4.792,80.403,1.193496,0.7606,"6"
"1142",1142,"63.04.2","3","16:0",0,55.849,99.685,1.214537,0.755,"6"
"1143",1143,"63.04.2","3","i17:0",0,15.654,-29.24,1.073677,0.76,"6"
"1144",1144,"63.04.2","3","17:0cy",0,18.365,-5.876,1.099233,0.7654,"6"
"1145",1145,"63.04.2","3","17:0",0,13.832,-14.694,1.089589,0.76,"6"
"1146",1146,"63.04.2","3","trans-18:1n9",0,15.939,127.376,1.24474,0.7697,"6"
"1147",1147,"63.04.2","3","18:0",0,10.915,160.381,1.280714,0.7645,"6"
"1148",1148,"63.04.2","3","19:0cy",0,68.711,-18.621,1.085293,0.7736,"6"
"1149",1149,"63.04.2","3","19:0",0,20.916,-28.095,1.074929,0.8216,"6"
"1150",1150,"63.04.2","3","20:5n3",0,0.305,-15.192,1.089044,0.797,"6"
