"ID","SampleName","InjectionVol_ul","FAME_compound","Sample_Dilution","Peak_Area","d13","Atom_per_13C","FAME_per_C","Dry_Soil_Mass_g","nmol_FAME_per_g_soil"
1,"01.05.1",3,"12:0",0,17.873,-31.002,1.071749,0.7285,6,6035.87
2,"01.05.1",3,"14:0",0,1.598,107.832,1.223426,0.7432,6,467.77
3,"01.05.1",3,"a15:0",0,27.59,37.836,1.147012,0.7494,6,7571.16
4,"01.05.1",3,"15:0",0,2.95,72.745,1.185137,0.7494,6,809.53
5,"01.05.1",3,"16:1n9/i16:0",0,4.342,313.808,1.447601,0.7606,6,1121.44
6,"01.05.1",3,"16:1w5",0,5.795,76.551,1.189291,0.7554,6,1590.11
7,"01.05.1",3,"16:0",0,39.344,361.223,1.499061,0.755,6,10160.76
8,"01.05.1",3,"i17:0",0,5.433,-37.937,1.06416,0.76,6,1325.14
9,"01.05.1",3,"17:0cy",0,10.32,31.745,1.140358,0.7654,6,2517.19
10,"01.05.1",3,"17:0",0,8.088,16.366,1.12355,0.76,6,1972.71
11,"01.05.1",3,"18:3n6",0,0.652,69.992,1.18213,0.7765,6,159.03
12,"01.05.1",3,"18:2n9,12 and cis-18:1n9 and 183n3",0,11.158,271.615,1.401763,0.775,6,2578.24
13,"01.05.1",3,"18:0",0,10.743,375.38,1.514415,0.7645,6,2482.45
14,"01.05.1",3,"19:0cy",0,49.436,1.653,1.107466,0.7736,6,10852.44
15,"01.05.1",3,"19:0",0,18.796,-28.984,1.073956,0.8216,6,4126.23
16,"01.05.1",3,"20:4n6",0,0.419,1.567,1.107372,0.7919,6,87.6
17,"01.05.1",3,"20:5n3",0,0.303,-4.498,1.10074,0.797,6,63.35
18,"01.05.3",3,"12:0",0,15.032,-39.489,1.062461,0.7285,6.09,4192.27
19,"01.05.3",3,"14:0",0,2.444,13.485,1.120401,0.7432,6.09,590.8
20,"01.05.3",3,"a15:0",0,33.172,-9.676,1.095077,0.7494,6.09,7517.49
21,"01.05.3",3,"15:0",0,3.847,3.815,1.10983,0.7494,6.09,871.82
22,"01.05.3",3,"16:1n9/i16:0",0,4.681,73.656,1.186131,0.7606,6.09,998.43
23,"01.05.3",3,"16:1w5",0,6.258,-0.112,1.105536,0.7554,6.09,1418.08
24,"01.05.3",3,"16:0",0,38.88,84.488,1.197955,0.755,6.09,8292.11
25,"01.05.3",3,"i17:0",0,4.478,-32.868,1.069706,0.76,6.09,901.98
26,"01.05.3",3,"17:0cy",0,9.659,-7.906,1.097013,0.7654,6.09,1945.62
27,"01.05.3",3,"17:0",0,7.109,-12.531,1.091955,0.76,6.09,1431.93
28,"01.05.3",3,"18:3n6",0,0.806,2.656,1.108563,0.7765,6.09,162.35
29,"01.05.3",3,"trans-18:1n9",0,10.936,49.735,1.16001,0.7697,6.09,2086.91
30,"01.05.3",3,"18:0",0,9.96,86.393,1.200033,0.7645,6.09,1900.67
31,"01.05.3",3,"19:0cy",0,35.779,-20.159,1.083611,0.7736,6.09,6486.39
32,"01.05.3",3,"19:0",0,16.412,-30.499,1.072298,0.8216,6.09,2975.36
33,"01.05.3",3,"20:4n6",0,1.217,3.182,1.109138,0.7919,6.09,210.13
34,"01.05.3",3,"20:5n3",0,1.141,-23.857,1.079566,0.797,6.09,197
35,"01.13.1",2,"12:0",0,15.53,-31.013,1.071736,0.7285,6.074,9072.96
36,"01.13.1",2,"14:0",0,1.067,5.755,1.11195,0.7432,6.074,540.31
37,"01.13.1",2,"a15:0",0,15.64,-8.881,1.095946,0.7494,6.074,7424.75
38,"01.13.1",2,"15:0",0,1.627,-13.301,1.091112,0.7494,6.074,772.38
39,"01.13.1",2,"16:1n9/i16:0",0,2.254,223.851,1.34982,0.7606,6.074,1007.11
40,"01.13.1",2,"16:1w5",0,2.712,-3.955,1.101334,0.7554,6.074,1287.36
41,"01.13.1",2,"16:0",0,21.383,12.774,1.119624,0.755,6.074,9553.26
42,"01.13.1",2,"i17:0",0,4.124,-29.396,1.073506,0.76,6.074,1740.11
43,"01.13.1",2,"17:0cy",0,5.833,-16.705,1.087389,0.7654,6.074,2461.28
44,"01.13.1",2,"17:0",0,5.332,-27.233,1.075872,0.76,6.074,2249.82
45,"01.13.1",2,"18:3n6",0,0.414,-22.638,1.0809,0.7765,6.074,174.69
46,"01.13.1",2,"trans-18:1n9",0,6.115,-21.929,1.081675,0.7697,6.074,2444.48
47,"01.13.1",2,"18:0",0,5.504,0.174,1.105848,0.7645,6.074,2200.24
48,"01.13.1",2,"19:0cy",0,24.437,-33.436,1.069085,0.7736,6.074,9280.42
49,"01.13.1",2,"19:0",0,14.658,-32.145,1.070498,0.8216,6.074,5566.7
50,"01.13.1",2,"20:4n6",0,0.363,-26.851,1.07629,0.7919,6.074,131.3
51,"01.13.2",2,"12:0",0,22.532,-50.775,1.050108,0.7285,6.008,9199.57
52,"01.13.2",2,"14:0",0,2.888,17.481,1.124769,0.7432,6.008,1022.06
53,"01.13.2",2,"a15:0",0,49.538,7.656,1.114029,0.7494,6.008,16435.18
54,"01.13.2",2,"15:0",0,5.305,-9.002,1.095814,0.7494,6.008,1760.04
55,"01.13.2",2,"16:1n9/i16:0",0,2.445,957.27,2.141408,0.7606,6.008,763.47
56,"01.13.2",2,"16:1w5",0,4.518,-70.389,1.028633,0.7554,6.008,1498.82
57,"01.13.2",2,"16:0",0,31.755,103.591,1.218798,0.755,6.008,9914.84
58,"01.13.2",2,"i17:0",0,11.204,-24.938,1.078383,0.76,6.008,3303.85
59,"01.13.2",2,"17:0cy",0,10.547,50.189,1.160506,0.7654,6.008,3110.22
60,"01.13.2",2,"17:0",0,9.311,-15.932,1.088235,0.76,6.008,2745.64
61,"01.13.2",2,"18:3n6",0,0.967,-7.891,1.097029,0.7765,6.008,285.16
62,"01.13.2",2,"trans-18:1n9",0,7.987,0.292,1.105978,0.7697,6.008,2231.33
63,"01.13.2",2,"18:0",0,7.323,73.693,1.186171,0.7645,6.008,2045.83
64,"01.13.2",2,"19:0cy",0,32.807,-30.438,1.072366,0.7736,6.008,8707.16
65,"01.13.2",2,"19:0",0,21.825,-30.585,1.072205,0.8216,6.008,5792.52
66,"01.13.2",2,"20:4n6",0,1.252,-22.933,1.080576,0.7919,6.008,316.47
67,"01.13.2",2,"20:5n3",0,3.083,-27.948,1.07509,0.797,6.008,779.26
68,"01.13.3",2,"12:0",0,14.982,-31.141,1.071596,0.7285,6.002,4170.45
69,"01.13.3",2,"14:0",0,2.528,-18.416,1.085518,0.7432,6.002,609.95
70,"01.13.3",2,"a15:0",0,37.532,-20.079,1.083699,0.7494,6.002,8489.55
71,"01.13.3",2,"15:0",0,4.031,-20.629,1.083097,0.7494,6.002,911.78
72,"01.13.3",2,"16:1n9/i16:0",0,2.821,88.656,1.202503,0.7606,6.002,600.57
73,"01.13.3",2,"16:1w5",0,4.044,-27.421,1.075667,0.7554,6.002,914.66
74,"01.13.3",2,"16:0",0,29.174,-6.97,1.098036,0.755,6.002,6210.35
75,"01.13.3",2,"i17:0",0,7.677,-32.55,1.070054,0.76,6.002,1543.43
76,"01.13.3",2,"17:0cy",0,8.058,-21.404,1.082249,0.7654,6.002,1620.07
77,"01.13.3",2,"17:0",0,6.401,-27.395,1.075694,0.76,6.002,1286.89
78,"01.13.3",2,"trans-18:1n9",0,8.874,-20.238,1.083525,0.7697,6.002,1690.23
79,"01.13.3",2,"18:0",0,8.124,-8.908,1.095917,0.7645,6.002,1547.37
80,"01.13.3",2,"19:0cy",0,29.943,-34.337,1.068099,0.7736,6.002,5418.16
81,"01.13.3",2,"19:0",0,14.084,-33.126,1.069424,0.8216,6.002,2548.5
82,"01.13.3",2,"20:4n6",0,0.996,-36.97,1.065218,0.7919,6.002,171.64
83,"01.13.3",2,"20:5n3",0,1.886,-35.259,1.06709,0.797,6.002,325.02
84,"02.08.1",3,"12:0",0,16.26,-30.341,1.072472,0.7285,6.004,6000.06
85,"02.08.1",3,"14:0",0,1.319,56.009,1.166862,0.7432,6.004,421.87
86,"02.08.1",3,"a15:0",0,24.472,-0.793,1.104792,0.7494,6.004,7337.93
87,"02.08.1",3,"15:0",0,2.782,30.283,1.13876,0.7494,6.004,834.18
88,"02.08.1",3,"16:1n9/i16:0",0,2.671,161.454,1.281884,0.7606,6.004,753.8
89,"02.08.1",3,"16:1w5",0,3.832,60.473,1.171737,0.7554,6.004,1148.93
90,"02.08.1",3,"16:0",0,26.196,274.107,1.404471,0.755,6.004,7392.24
91,"02.08.1",3,"i17:0",0,4.779,-33.194,1.069349,0.76,6.004,1273.66
92,"02.08.1",3,"17:0cy",0,7.285,9.359,1.115891,0.7654,6.004,1941.6
93,"02.08.1",3,"17:0",0,5.792,-0.752,1.104836,0.76,6.004,1543.63
94,"02.08.1",3,"18:3n6",0,0.546,62.517,1.173969,0.7765,6.004,145.51
95,"02.08.1",3,"18:2n9,12 and cis-18:1n9 and 183n3",0,7.519,167.034,1.287962,0.775,6.004,1898.41
96,"02.08.1",3,"18:0",0,6.701,256.925,1.385793,0.7645,6.004,1691.95
97,"02.08.1",3,"19:0cy",0,26.491,-1.891,1.10359,0.7736,6.004,6354.42
98,"02.08.1",3,"19:0",0,16.918,-27.714,1.075346,0.8216,6.004,4058.17
99,"02.08.1",3,"20:4n6",0,0.78,-21.569,1.082069,0.7919,6.004,178.2
100,"02.08.1",3,"20:5n3",0,1.45,-31.553,1.071145,0.797,6.004,331.24
101,"02.08.2",3,"12:0",0,16.54,-31.564,1.071133,0.7285,6.003,5991.43
102,"02.08.2",3,"14:0",0,3.173,21.752,1.129437,0.7432,6.003,996.26
103,"02.08.2",3,"a15:0",0,49.215,-2.035,1.103433,0.7494,6.003,14486.43
104,"02.08.2",3,"15:0",0,6.361,-2.033,1.103435,0.7494,6.003,1872.36
105,"02.08.2",3,"16:1n9/i16:0",0,9.255,67.205,1.179089,0.7606,6.003,2563.99
106,"02.08.2",3,"16:1w5",0,12.231,3.22,1.10918,0.7554,6.003,3599.9
107,"02.08.2",3,"16:0",0,68.84,91.233,1.205315,0.755,6.003,19069.62
108,"02.08.2",3,"i17:0",0,10.095,-26.288,1.076906,0.76,6.003,2641.08
109,"02.08.2",3,"17:0cy",0,17.487,-8.824,1.096009,0.7654,6.003,4575.13
110,"02.08.2",3,"17:0",0,13.065,-15.569,1.088632,0.76,6.003,3418.1
111,"02.08.2",3,"18:3n6",0,0.908,16.415,1.123604,0.7765,6.003,237.55
112,"02.08.2",3,"trans-18:1n9",0,22.234,55.988,1.16684,0.7697,6.003,5510.94
113,"02.08.2",3,"18:0",0,21.677,79.111,1.192086,0.7645,6.003,5372.89
114,"02.08.2",3,"19:0cy",0,75.379,-21.293,1.08237,0.7736,6.003,17749.58
115,"02.08.2",3,"19:0",0,19.62,-30.151,1.072679,0.8216,6.003,4619.98
116,"02.08.2",3,"20:4n6",0,1.567,-12.008,1.092527,0.7919,6.003,351.43
117,"02.08.2",3,"20:5n3",0,0.607,-20.28,1.083479,0.797,6.003,136.12
118,"02.08.3",3,"12:0",0,14.947,-30.611,1.072176,0.7285,6.007,5806.08
119,"02.08.3",3,"14:0",0,4.921,-9.107,1.0957,0.7432,6.007,1656.87
120,"02.08.3",3,"a15:0",0,80.145,-16.425,1.087695,0.7494,6.007,25297.24
121,"02.08.3",3,"15:0",0,8.762,-12.135,1.092388,0.7494,6.007,2765.67
122,"02.08.3",3,"16:1n9/i16:0",0,15.664,6.036,1.112258,0.7606,6.007,4653.47
123,"02.08.3",3,"16:1w5",0,20.977,-18.728,1.085176,0.7554,6.007,6620.71
124,"02.08.3",3,"16:0",0,115.871,10.968,1.11765,0.755,6.007,34419.83
125,"02.08.3",3,"i17:0",0,15.26,-29.845,1.073015,0.76,6.007,4281.17
126,"02.08.3",3,"17:0cy",0,23.756,-20.794,1.082916,0.7654,6.007,6664.92
127,"02.08.3",3,"17:0",0,17.504,-25.171,1.078128,0.76,6.007,4910.72
128,"02.08.3",3,"18:3n6",0,1.345,-17.362,1.08667,0.7765,6.007,377.34
129,"02.08.3",3,"trans-18:1n9",0,40.931,13.647,1.120578,0.7697,6.007,10879.09
130,"02.08.3",3,"18:0",0,41.198,15.277,1.12236,0.7645,6.007,10950.08
131,"02.08.3",3,"19:0cy",0,128.818,-27.354,1.07574,0.7736,6.007,32527.21
132,"02.08.3",3,"19:0",0,19.84,-30.283,1.072535,0.8216,6.007,5009.75
133,"02.08.3",3,"20:4n6",0,2.549,-28.88,1.07407,0.7919,6.007,613.01
134,"02.08.3",3,"20:5n3",0,0.689,-30.425,1.072379,0.797,6.007,165.69
135,"02.10.1",2,"12:0",0,13.457,-30.539,1.072254,0.7285,6.059,6125.39
136,"02.10.1",2,"14:0",0,1.264,175.821,1.297535,0.7432,6.059,498.71
137,"02.10.1",2,"a15:0",0,22.725,1.16,1.106927,0.7494,6.059,8405.4
138,"02.10.1",2,"15:0",0,2.152,-6.373,1.098689,0.7494,6.059,795.97
139,"02.10.1",2,"16:1n9/i16:0",0,3.413,293.71,1.425772,0.7606,6.059,1188.14
140,"02.10.1",2,"16:1w5",0,3.698,11.553,1.118289,0.7554,6.059,1367.69
141,"02.10.1",2,"16:0",0,26.02,66.261,1.178058,0.755,6.059,9057.3
142,"02.10.1",2,"i17:0",0,0.446,-32.615,1.069984,0.76,6.059,146.62
143,"02.10.1",2,"17:0cy",0,7.563,-9.78,1.094963,0.7654,6.059,2486.41
144,"02.10.1",2,"17:0",0,6.328,-23.515,1.07994,0.76,6.059,2080.32
145,"02.10.1",2,"18:3n6",0,0.432,-28.623,1.074351,0.7765,6.059,142.02
146,"02.10.1",2,"trans-18:1n9",0,7.789,-14.042,1.090302,0.7697,6.059,2425.93
147,"02.10.1",2,"18:0",0,6.797,35.632,1.144604,0.7645,6.059,2116.98
148,"02.10.1",2,"19:0cy",0,24.889,-32.249,1.070384,0.7736,6.059,7364.36
149,"02.10.1",2,"19:0",0,13.575,-32.347,1.070277,0.8216,6.059,4016.72
150,"02.10.1",2,"20:4n6",0,0.402,-18.368,1.085571,0.7919,6.059,113.29
151,"02.10.3",3,"12:0",0,15.975,-31.012,1.071737,0.7285,6.002,4131.59
152,"02.10.3",3,"14:0",0,1.404,-21.05,1.082636,0.7432,6.002,314.74
153,"02.10.3",3,"a15:0",0,30.103,-25.635,1.077621,0.7494,6.002,6326.37
154,"02.10.3",3,"15:0",0,3.332,-27.043,1.07608,0.7494,6.002,700.24
155,"02.10.3",3,"16:1n9/i16:0",0,3.469,22.559,1.130319,0.7606,6.002,686.17
156,"02.10.3",3,"16:1w5",0,5.166,-22.844,1.080674,0.7554,6.002,1085.58
157,"02.10.3",3,"16:0",0,35.431,-20.376,1.083373,0.755,6.002,7007.54
158,"02.10.3",3,"i17:0",0,4.765,-32.602,1.069997,0.76,6.002,890.06
159,"02.10.3",3,"17:0cy",0,10.241,-28.372,1.074626,0.7654,6.002,1912.99
160,"02.10.3",3,"17:0",0,7.975,-31.942,1.070719,0.76,6.002,1489.66
161,"02.10.3",3,"18:3n6",0,0.635,-27.537,1.075539,0.7765,6.002,118.61
162,"02.10.3",3,"trans-18:1n9",0,10.98,-24.529,1.078831,0.7697,6.002,1943.08
163,"02.10.3",3,"18:0",0,8.991,-19.807,1.083997,0.7645,6.002,1591.1
164,"02.10.3",3,"19:0cy",0,42.485,-34.432,1.067995,0.7736,6.002,7142.57
165,"02.10.3",3,"19:0",0,16.684,-33.036,1.069523,0.8216,6.002,2804.94
166,"02.10.3",3,"20:4n6",0,1.031,-37.747,1.064367,0.7919,6.002,165.08
167,"02.10.3",3,"20:5n3",0,1.133,-35.216,1.067137,0.797,6.002,181.4
168,"03.07.2",3,"12:0",0,17.461,-30.823,1.071944,0.7285,6.051,3166.74
169,"03.07.2",3,"14:0",0,1.563,0.081,1.105747,0.7432,6.051,245.7
170,"03.07.2",3,"a15:0",0,37.314,-17.423,1.086604,0.7494,6.051,5499
171,"03.07.2",3,"15:0",0,3.773,-7.887,1.097033,0.7494,6.051,556.03
172,"03.07.2",3,"16:1n9/i16:0",0,3.256,41.474,1.150987,0.7606,6.051,451.62
173,"03.07.2",3,"16:1w5",0,6.158,-2.836,1.102558,0.7554,6.051,907.44
174,"03.07.2",3,"16:0",0,42.64,79.322,1.192316,0.755,6.051,5913.8
175,"03.07.2",3,"i17:0",0,4.631,-33.41,1.069113,0.76,6.051,606.59
176,"03.07.2",3,"17:0cy",0,11.566,-14.838,1.089432,0.7654,6.051,1515.03
177,"03.07.2",3,"17:0",0,9.16,-21.894,1.081713,0.76,6.051,1199.82
178,"03.07.2",3,"18:3n6",0,0.826,81.575,1.194775,0.7765,6.051,108.2
179,"03.07.2",3,"trans-18:1n9",0,13.068,81.546,1.194744,0.7697,6.051,1621.68
180,"03.07.2",3,"18:0",0,7.418,134.027,1.251992,0.7645,6.051,920.54
181,"03.07.2",3,"19:0cy",0,55.263,-25.319,1.077966,0.7736,6.051,6515.09
182,"03.07.2",3,"19:0",0,18.83,-30.225,1.072599,0.8216,6.051,2219.93
183,"03.07.2",3,"20:4n6",0,0.55,8.067,1.114478,0.7919,6.051,61.76
184,"03.07.2",3,"20:5n3",0,1.293,-22.79,1.080733,0.797,6.051,145.17
185,"03.07.3",2,"12:0",0,14.647,-30.425,1.072379,0.7285,6,7285.92
186,"03.07.3",2,"14:0",0,2.183,6.14,1.112371,0.7432,6,941.24
187,"03.07.3",2,"a15:0",0,36.978,-15.45,1.088762,0.7494,6,14946.77
188,"03.07.3",2,"15:0",0,3.589,-4.167,1.101102,0.7494,6,1450.71
189,"03.07.3",2,"16:1n9/i16:0",0,4.49,31.047,1.139595,0.7606,6,1708.16
190,"03.07.3",2,"16:1w5",0,7.159,-0.791,1.104793,0.7554,6,2893.49
191,"03.07.3",2,"16:0",0,45.948,88.825,1.202688,0.755,6,17478.66
192,"03.07.3",2,"i17:0",0,5.903,-33.666,1.068833,0.76,6,2120.73
193,"03.07.3",2,"17:0cy",0,11.487,-18.896,1.084993,0.7654,6,4127
194,"03.07.3",2,"17:0",0,8.411,-22.575,1.080968,0.76,6,3021.78
195,"03.07.3",2,"18:3n6",0,0.56,-13.62,1.090764,0.7765,6,201.19
196,"03.07.3",2,"trans-18:1n9",0,15.126,65.979,1.17775,0.7697,6,5148.39
197,"03.07.3",2,"18:0",0,9.212,92.353,1.206537,0.7645,6,3135.47
198,"03.07.3",2,"19:0cy",0,0.316,-89.631,1.007556,0.7736,6,102.18
199,"03.07.3",2,"19:0",0,0.348,-88.9,1.008357,0.8216,6,112.53
200,"03.07.3",2,"20:4n6",0,0.559,-55.185,1.045281,0.7919,6,172.15
201,"05.03.1",3,"12:0",0,0.824,-29.694,1.073179,0.7285,6.009,291.42
202,"05.03.1",3,"14:0",0,0.198,-17.398,1.086631,0.7432,6.009,60.69
203,"05.03.1",3,"a15:0",0,18.554,-5.877,1.099232,0.7494,6.009,5331.89
204,"05.03.1",3,"15:0",0,2.232,19.477,1.126951,0.7494,6.009,641.42
205,"05.03.1",3,"16:1n9/i16:0",0,2.478,87.028,1.200726,0.7606,6.009,670.23
206,"05.03.1",3,"16:1w5",0,4.328,32.14,1.140789,0.7554,6.009,1243.64
207,"05.03.1",3,"16:0",0,35.978,175.047,1.296691,0.755,6.009,9730.13
208,"05.03.1",3,"i17:0",0,3.69,-31.48,1.071225,0.76,6.009,942.5
209,"05.03.1",3,"17:0cy",0,12.06,-0.153,1.105491,0.7654,6.009,3080.47
210,"05.03.1",3,"17:0",0,10.471,-11.675,1.092891,0.76,6.009,2674.5
211,"05.03.1",3,"18:3n6",0,0.88,21.971,1.129677,0.7765,6.009,224.77
212,"05.03.1",3,"trans-18:1n9",0,11.63,152.802,1.272456,0.7697,6.009,2814.28
213,"05.03.1",3,"18:0",0,7.108,215.253,1.340465,0.7645,6.009,1720.03
214,"05.03.1",3,"19:0cy",0,50.615,-18.28,1.085666,0.7736,6.009,11635.82
215,"05.03.1",3,"19:0",0,15.286,-28.824,1.074132,0.8216,6.009,3514.11
216,"05.03.1",3,"20:4n6",0,0.48,-31.467,1.07124,0.7919,6.009,105.1
217,"05.03.1",3,"20:5n3",0,1.048,-28.099,1.074924,0.797,6.009,229.45
218,"05.03.2",3,"12:0",0,12.478,-30.652,1.072132,0.7285,6.034,4548.53
219,"05.03.2",3,"14:0",0,1.347,105.379,1.220749,0.7432,6.034,425.6
220,"05.03.2",3,"a15:0",0,30.818,2.112,1.107968,0.7494,6.034,9128.51
221,"05.03.2",3,"15:0",0,3.002,32.098,1.140743,0.7494,6.034,889.21
222,"05.03.2",3,"16:1n9/i16:0",0,3.317,159.072,1.279287,0.7606,6.034,924.74
223,"05.03.2",3,"16:1w5",0,4.955,34.971,1.143882,0.7554,6.034,1467.59
224,"05.03.2",3,"16:0",0,35.485,162.492,1.283014,0.755,6.034,9891.86
225,"05.03.2",3,"i17:0",0,3.673,-27.818,1.075232,0.76,6.034,967
226,"05.03.2",3,"17:0cy",0,8.931,5.552,1.111729,0.7654,6.034,2351.37
227,"05.03.2",3,"17:0",0,7.549,-7.999,1.096911,0.76,6.034,1987.45
228,"05.03.2",3,"18:3n6",0,0.608,20.996,1.128611,0.7765,6.034,160.08
229,"05.03.2",3,"trans-18:1n9",0,10.122,135.773,1.253894,0.7697,6.034,2524.67
230,"05.03.2",3,"18:0",0,9.152,171.91,1.293274,0.7645,6.034,2282.74
231,"05.03.2",3,"19:0cy",0,32.337,-11.901,1.092644,0.7736,6.034,7662.47
232,"05.03.2",3,"19:0",0,13.364,-28.463,1.074527,0.8216,6.034,3166.72
233,"05.03.2",3,"20:4n6",0,0.287,181.974,1.304235,0.7919,6.034,64.77
234,"05.03.2",3,"20:5n3",0,0.898,4.357,1.110422,0.797,6.034,202.65
235,"05.03.3",2,"14:0",0,0.508,-15.761,1.088422,0.7432,6.004,173.82
236,"05.03.3",2,"a15:0",0,17.008,-27.492,1.075589,0.7494,6.004,5455.63
237,"05.03.3",2,"15:0",0,2.025,-18.612,1.085303,0.7494,6.004,649.55
238,"05.03.3",2,"16:1n9/i16:0",0,2.739,-10.624,1.094041,0.7606,6.004,826.92
239,"05.03.3",2,"16:1w5",0,4.506,-18.049,1.08592,0.7554,6.004,1445.26
240,"05.03.3",2,"16:0",0,33.382,21.513,1.129176,0.755,6.004,10077.23
241,"05.03.3",2,"i17:0",0,3.033,-32.706,1.069884,0.76,6.004,864.71
242,"05.03.3",2,"17:0cy",0,9.214,-26.385,1.0768,0.7654,6.004,2627.03
243,"05.03.3",2,"17:0",0,7.353,-28.941,1.074003,0.76,6.004,2096.37
244,"05.03.3",2,"18:3n6",0,0.61,-22.487,1.081064,0.7765,6.004,173.92
245,"05.03.3",2,"trans-18:1n9",0,12.884,4.012,1.110045,0.7697,6.004,3480.05
246,"05.03.3",2,"18:0",0,8.308,14.881,1.121928,0.7645,6.004,2244.05
247,"05.03.3",2,"19:0cy",0,41.784,-31.694,1.070991,0.7736,6.004,10721.98
248,"05.03.3",2,"19:0",0,12.188,-34.021,1.068444,0.8216,6.004,3127.53
249,"05.03.3",2,"20:5n3",0,0.838,-32.271,1.070359,0.797,6.004,204.79
250,"05.09.2",3,"12:0",0,2.627,-30.798,1.071971,0.7285,6.032,462.25
251,"05.09.2",3,"14:0",0,1.286,14.483,1.121492,0.7432,6.032,196.14
252,"05.09.2",3,"a15:0",0,29.307,-5.621,1.099512,0.7494,6.032,4190.43
253,"05.09.2",3,"15:0",0,2.968,-0.573,1.105032,0.7494,6.032,424.38
254,"05.09.2",3,"16:1n9/i16:0",0,4.412,62.396,1.173838,0.7606,6.032,593.74
255,"05.09.2",3,"16:1w5",0,6.268,6.251,1.112494,0.7554,6.032,896.15
256,"05.09.2",3,"16:0",0,37.884,97.606,1.212269,0.755,6.032,5097.77
257,"05.09.2",3,"i17:0",0,3.573,-30.847,1.071918,0.76,6.032,454.08
258,"05.09.2",3,"17:0cy",0,11.585,-5.125,1.100054,0.7654,6.032,1472.34
259,"05.09.2",3,"17:0",0,9.175,-17.209,1.086838,0.76,6.032,1166.01
260,"05.09.2",3,"18:3n6",0,0.882,10.59,1.117236,0.7765,6.032,112.09
261,"05.09.2",3,"trans-18:1n9",0,12.224,76.229,1.188939,0.7697,6.032,1471.78
262,"05.09.2",3,"18:0",0,8.444,137.176,1.255424,0.7645,6.032,1016.67
263,"05.09.2",3,"19:0cy",0,40.695,-14.479,1.089824,0.7736,6.032,4654.81
264,"05.09.2",3,"19:0",0,13.471,-29.25,1.073665,0.8216,6.032,1540.86
265,"05.09.2",3,"20:4n6",0,0.458,-21.45,1.082199,0.7919,6.032,49.9
266,"05.09.2",3,"20:5n3",0,2.122,-30.417,1.072389,0.797,6.032,231.15
267,"05.09.3",3,"12:0",0,2.029,-30.642,1.072142,0.7285,6.007,779.07
268,"05.09.3",3,"14:0",0,0.965,0.993,1.106744,0.7432,6.007,321.16
269,"05.09.3",3,"a15:0",0,18.402,-12.866,1.091589,0.7494,6.007,5741.52
270,"05.09.3",3,"15:0",0,2.544,-7.85,1.097074,0.7494,6.007,793.74
271,"05.09.3",3,"16:1n9/i16:0",0,3.245,16.29,1.123467,0.7606,6.007,952.92
272,"05.09.3",3,"16:1w5",0,4.923,-7.776,1.097156,0.7554,6.007,1535.88
273,"05.09.3",3,"16:0",0,33.207,50.719,1.161085,0.755,6.007,9750.55
274,"05.09.3",3,"i17:0",0,0.934,-35.852,1.066442,0.76,6.007,259.01
275,"05.09.3",3,"17:0cy",0,9.161,-17.878,1.086106,0.7654,6.007,2540.56
276,"05.09.3",3,"17:0",0,7.945,-22.845,1.080672,0.76,6.007,2203.27
277,"05.09.3",3,"18:3n6",0,0.628,-11.561,1.093016,0.7765,6.007,174.15
278,"05.09.3",3,"trans-18:1n9",0,12.663,25.232,1.13324,0.7697,6.007,3326.92
279,"05.09.3",3,"18:0",0,8.879,57.193,1.168156,0.7645,6.007,2332.76
280,"05.09.3",3,"19:0cy",0,41.509,-23.498,1.079959,0.7736,6.007,10360.44
281,"05.09.3",3,"19:0",0,14.446,-31.595,1.0711,0.8216,6.007,3605.68
282,"05.09.3",3,"20:4n6",0,0.331,-30.674,1.072108,0.7919,6.007,78.68
283,"05.09.3",3,"20:5n3",0,0.468,-29.119,1.073809,0.797,6.007,111.24
284,"06.06.1",2,"12:0",0,14.134,-30.734,1.072041,0.7285,6,9222.9
285,"06.06.1",2,"14:0",0,2.026,14.499,1.12151,0.7432,6,1145.91
286,"06.06.1",2,"a15:0",0,36.95,-3.967,1.10132,0.7494,6,19592.33
287,"06.06.1",2,"15:0",0,3.797,4.312,1.110373,0.7494,6,2013.32
288,"06.06.1",2,"16:1n9/i16:0",0,5.981,56.91,1.167847,0.7606,6,2984.85
289,"06.06.1",2,"16:1w5",0,9.056,-4.35,1.100902,0.7554,6,4801.44
290,"06.06.1",2,"16:0",0,49.87,74.299,1.186833,0.755,6,24885.59
291,"06.06.1",2,"i17:0",0,2.236,-33.986,1.068483,0.76,6,1053.79
292,"06.06.1",2,"17:0cy",0,13.331,-7.979,1.096933,0.7654,6,6282.88
293,"06.06.1",2,"17:0",0,8.715,-12.665,1.091808,0.76,6,4107.24
294,"06.06.1",2,"18:3n6",0,0.852,7.421,1.113773,0.7765,6,401.54
295,"06.06.1",2,"trans-18:1n9",0,14.125,75.172,1.187786,0.7697,6,6306.72
296,"06.06.1",2,"18:0",0,14.333,77.916,1.190781,0.7645,6,6399.61
297,"06.06.1",2,"19:0cy",0,69.335,-19.698,1.084115,0.7736,6,29410.18
298,"06.06.1",2,"19:0",0,15.946,-31.574,1.071123,0.8216,6,6763.96
299,"06.06.1",2,"20:4n6",0,0.873,62.254,1.173683,0.7919,6,352.69
300,"06.06.1",2,"20:5n3",0,0.585,28.207,1.136492,0.797,6,236.32
301,"06.06.2",2,"12:0",0,16.245,-30.75,1.072024,0.7285,6,8966.77
302,"06.06.2",2,"14:0",0,0.816,9.471,1.116013,0.7432,6,390.4
303,"06.06.2",2,"a15:0",0,11.641,-4.384,1.100864,0.7494,6,5221.26
304,"06.06.2",2,"15:0",0,1.52,10.444,1.117077,0.7494,6,681.77
305,"06.06.2",2,"16:1n9/i16:0",0,1.547,56.604,1.167513,0.7606,6,653.06
306,"06.06.2",2,"16:1w5",0,2.751,-2.569,1.10285,0.7554,6,1233.79
307,"06.06.2",2,"16:0",0,16.068,145.927,1.264963,0.755,6,6782.4
308,"06.06.2",2,"i17:0",0,4.085,-34.106,1.068352,0.76,6,1628.5
309,"06.06.2",2,"17:0cy",0,4.003,-6.73,1.098299,0.7654,6,1595.86
310,"06.06.2",2,"17:0",0,2.705,-5.835,1.099278,0.76,6,1078.36
311,"06.06.2",2,"18:3n6",0,0.299,26.387,1.134502,0.7765,6,119.2
312,"06.06.2",2,"18:2n9,12 and cis-18:1n9 and 183n3",0,4.612,103.182,1.218353,0.775,6,1741.81
313,"06.06.2",2,"18:0",0,3.789,184.118,1.306571,0.7645,6,1431.05
314,"06.06.2",2,"19:0cy",0,19.499,-13.368,1.091039,0.7736,6,6996.33
315,"06.06.2",2,"19:0",0,14.806,-31.556,1.071142,0.8216,6,5312.51
316,"06.06.3",3,"12:0",0,18.35,-31.704,1.07098,0.7285,6,6514.37
317,"06.06.3",3,"14:0",0,4.141,2.997,1.108935,0.7432,6,1274.23
318,"06.06.3",3,"a15:0",0,69.809,-11.002,1.093627,0.7494,6,20138
319,"06.06.3",3,"15:0",0,7.275,-0.529,1.10508,0.7494,6,2098.64
320,"06.06.3",3,"16:1n9/i16:0",0,10.943,17.556,1.124851,0.7606,6,2971.11
321,"06.06.3",3,"16:1w5",0,17.928,-14.122,1.090215,0.7554,6,5171.32
322,"06.06.3",3,"16:0",0,100.719,40.7,1.150141,0.755,6,27343.48
323,"06.06.3",3,"i17:0",0,21.571,-31.603,1.07109,0.76,6,5530.78
324,"06.06.3",3,"17:0cy",0,22.148,-16.963,1.087107,0.7654,6,5678.9
325,"06.06.3",3,"17:0",0,16.083,-24.209,1.07918,0.76,6,4123.66
326,"06.06.3",3,"18:3n6",0,1.328,-11.304,1.093296,0.7765,6,340.5
327,"06.06.3",3,"trans-18:1n9",0,37.202,15.617,1.122731,0.7697,6,9036.81
328,"06.06.3",3,"18:0",0,29.991,38.675,1.147929,0.7645,6,7285.19
329,"06.06.3",3,"19:0cy",0,132.968,-26.068,1.077146,0.7736,6,30684.98
330,"06.06.3",3,"19:0",0,21.476,-31.874,1.070794,0.8216,6,4956.05
331,"06.06.3",3,"20:4n6",0,2.194,-30.582,1.072207,0.7919,6,482.22
332,"06.06.3",3,"20:5n3",0,0.529,-29.55,1.073337,0.797,6,116.26
333,"10.02.1",3,"12:0",0,16.051,-30.602,1.072186,0.7285,5.807,5699.9
334,"10.02.1",3,"14:0",0,2.908,29.92,1.138364,0.7432,5.807,895.09
335,"10.02.1",3,"a15:0",0,43.695,11.577,1.118315,0.7494,5.807,12608.57
336,"10.02.1",3,"15:0",0,3.998,0.366,1.106058,0.7494,5.807,1153.65
337,"10.02.1",3,"16:1n9/i16:0",0,6.89,179.72,1.301781,0.7606,5.807,1871.24
338,"10.02.1",3,"16:1w5",0,10.036,-3.635,1.101684,0.7554,5.807,2895.74
339,"10.02.1",3,"16:0",0,60.748,10.308,1.116929,0.755,5.807,16496.94
340,"10.02.1",3,"i17:0",0,8.066,-30.042,1.072799,0.76,5.807,2068.73
341,"10.02.1",3,"17:0cy",0,14.137,-13.707,1.090669,0.7654,5.807,3625.9
342,"10.02.1",3,"17:0",0,10.321,-24.843,1.078487,0.76,5.807,2647.08
343,"10.02.1",3,"18:3n6",0,0.637,-14.758,1.089519,0.7765,5.807,163.38
344,"10.02.1",3,"trans-18:1n9",0,18.546,-9.619,1.09514,0.7697,5.807,4506.38
345,"10.02.1",3,"18:0",0,17.234,11.741,1.118495,0.7645,5.807,4187.6
346,"10.02.1",3,"19:0cy",0,63.4,-33.16,1.069387,0.7736,5.807,14635.14
347,"10.02.1",3,"19:0",0,16.933,-34.419,1.068009,0.8216,5.807,3908.82
348,"10.02.1",3,"20:4n6",0,0.784,-23.61,1.079836,0.7919,5.807,172.37
349,"10.02.2",3,"12:0",0,17.417,-31.144,1.071593,0.7285,5.999,6498.69
350,"10.02.2",3,"14:0",0,3.389,-8.634,1.096217,0.7432,5.999,1096.05
351,"10.02.2",3,"a15:0",0,60.472,-16.173,1.087971,0.7494,5.999,18334.76
352,"10.02.2",3,"15:0",0,5.917,-19.583,1.084241,0.7494,5.999,1794
353,"10.02.2",3,"16:1n9/i16:0",0,6.209,71.051,1.183287,0.7606,5.999,1771.82
354,"10.02.2",3,"16:1w5",0,9.71,-15.166,1.089072,0.7554,5.999,2943.78
355,"10.02.2",3,"16:0",0,64.274,-8.548,1.096311,0.755,5.999,18339.75
356,"10.02.2",3,"i17:0",0,10.02,-29.621,1.073259,0.76,5.999,2700.22
357,"10.02.2",3,"17:0cy",0,17.845,-22.842,1.080676,0.7654,5.999,4809.08
358,"10.02.2",3,"17:0",0,13.991,-30.522,1.072274,0.76,5.999,3770.34
359,"10.02.2",3,"18:3n6",0,1.147,1.083,1.106843,0.7765,5.999,309.1
360,"10.02.2",3,"trans-18:1n9",0,16.936,-6.842,1.098177,0.7697,5.999,4323.9
361,"10.02.2",3,"18:0",0,15.803,-13.712,1.090663,0.7645,5.999,4034.64
362,"10.02.2",3,"19:0",0,17.906,-33.295,1.06924,0.8216,5.999,4343.07
363,"10.02.2",3,"20:4n6",0,0.982,-30.363,1.072447,0.7919,5.999,226.85
364,"10.02.2",3,"20:5n3",0,1.717,-33.594,1.068912,0.797,5.999,396.61
365,"10.02.3",1,"12:0",0,13.172,-30.958,1.071797,0.7285,6.005,14150.9
366,"10.02.3",1,"14:0",0,1.426,-2.527,1.102895,0.7432,6.005,1327.86
367,"10.02.3",1,"a15:0",0,24.547,-11.16,1.093454,0.7494,6.005,21428.88
368,"10.02.3",1,"15:0",0,2.446,-13.931,1.090423,0.7494,6.005,2135.3
369,"10.02.3",1,"16:1n9/i16:0",0,3.741,80.814,1.193945,0.7606,6.005,3073.73
370,"10.02.3",1,"16:1w5",0,5.322,-20.221,1.083543,0.7554,6.005,4645.6
371,"10.02.3",1,"16:0",0,34.991,-8.94,1.095883,0.755,6.005,28747.14
372,"10.02.3",1,"i17:0",0,0.391,-34.175,1.068276,0.76,6.005,303.39
373,"10.02.3",1,"17:0cy",0,8.818,-24.591,1.078763,0.7654,6.005,6842.21
374,"10.02.3",1,"17:0",0,7.271,-26.312,1.076879,0.76,6.005,5641.65
375,"10.02.3",1,"18:3n6",0,0.466,-18.708,1.085198,0.7765,6.005,361.58
376,"10.02.3",1,"trans-18:1n9",0,11.776,-16.319,1.087812,0.7697,6.005,8656.5
377,"10.02.3",1,"18:0",0,9.549,-5.604,1.099531,0.7645,6.005,7019.45
378,"10.02.3",1,"19:0cy",0,35.159,-34.012,1.068455,0.7736,6.005,24553.39
379,"10.02.3",1,"19:0",0,13.445,-33.419,1.069104,0.8216,6.005,9389.44
380,"10.02.3",1,"20:4n6",0,0.453,-24.693,1.078651,0.7919,6.005,301.31
381,"11.06.2",3,"12:0",0,15.588,-31.606,1.071088,0.7285,6.007,4748.71
382,"11.06.2",3,"12:0",0,16.694,-30.335,1.072478,0.7285,6.007,5085.65
383,"11.06.2",3,"14:0",0,1.905,3.592,1.109586,0.7432,6.007,503.02
384,"11.06.2",3,"14:0",0,1.09,-19.856,1.083942,0.7432,6.007,287.81
385,"11.06.2",3,"a15:0",0,23.591,-23.042,1.080457,0.7494,6.007,5839.83
386,"11.06.2",3,"a15:0",0,28.027,1.777,1.107601,0.7494,6.007,6937.94
387,"11.06.2",3,"15:0",0,2.26,3.545,1.109534,0.7494,6.007,559.45
388,"11.06.2",3,"15:0",0,2.751,-19.177,1.084685,0.7494,6.007,681
389,"11.06.2",3,"16:1n9/i16:0",0,3.852,113.782,1.229915,0.7606,6.007,897.47
390,"11.06.2",3,"16:1n9/i16:0",0,2.709,26.317,1.134426,0.7606,6.007,631.16
391,"11.06.2",3,"16:1w7",0,3.929,-23.767,1.079664,NA,6.007,NA
392,"11.06.2",3,"16:1w5",0,6.435,-17.836,1.086152,0.7554,6.007,1592.82
393,"11.06.2",3,"16:0",0,27.062,-18.47,1.085458,0.755,6.007,6304.5
394,"11.06.2",3,"16:0",0,32.518,2.419,1.108304,0.755,6.007,7575.56
395,"11.06.2",3,"i17:0",0,2.008,-13.443,1.090958,0.76,6.007,441.81
396,"11.06.2",3,"i17:0",0,4.539,-35.054,1.067314,0.76,6.007,998.67
397,"11.06.2",3,"17:0cy",0,7.42,-23.665,1.079775,0.7654,6.007,1632.61
398,"11.06.2",3,"17:0cy",0,10.153,-6.25,1.098824,0.7654,6.007,2233.95
399,"11.06.2",3,"17:0",0,7.814,-16.495,1.087619,0.76,6.007,1719.25
400,"11.06.2",3,"17:0",0,5.271,-29.292,1.073619,0.76,6.007,1159.74
401,"11.06.2",3,"18:3n6",0,0.588,-15.338,1.088885,0.7765,6.007,129.37
402,"11.06.2",3,"18:3n6",0,0.501,12.694,1.119536,0.7765,6.007,110.23
403,"11.06.2",3,"trans-18:1n9",0,6.318,-1.533,1.103982,0.7697,6.007,1316.97
404,"11.06.2",3,"trans-18:1n9",0,8.512,12.918,1.119782,0.7697,6.007,1774.31
405,"11.06.2",3,"18:0",0,5.562,-6.814,1.098207,0.7645,6.007,1159.39
406,"11.06.2",3,"18:0",0,7.41,26.387,1.134503,0.7645,6.007,1544.61
407,"11.06.2",3,"19:0cy",0,29.297,-35.379,1.066959,0.7736,6.007,5801.64
408,"11.06.2",3,"19:0cy",0,38.44,-32.837,1.069741,0.7736,6.007,7612.22
409,"11.06.2",3,"19:0",0,15.07,-32.722,1.069866,0.8216,6.007,2984.31
410,"11.06.2",3,"19:0",0,15.921,-33.195,1.069349,0.8216,6.007,3152.84
411,"11.06.2",3,"20:4n6",0,0.745,-17.332,1.086703,0.7919,6.007,140.51
412,"11.06.2",3,"20:4n6",0,0.651,-6.599,1.098443,0.7919,6.007,122.79
413,"11.06.2",3,"20:5n3",0,0.408,-26.087,1.077126,0.797,6.007,76.95
414,"11.06.2",3,"20:5n3",0,1.112,-32.765,1.069819,0.797,6.007,209.72
415,"11.06.3",1,"12:0",0,13.145,-30.895,1.071865,0.7285,6.012,20460.83
416,"11.06.3",2,"12:0",0,24.909,-29.832,1.073029,0.7285,6.012,19386.02
417,"11.06.3",1,"14:0",0,1.643,-20.603,1.083125,0.7432,6.012,2216.7
418,"11.06.3",2,"14:0",0,2.934,-26.883,1.076256,0.7432,6.012,1979.25
419,"11.06.3",1,"a15:0",0,22.963,-23.396,1.08007,0.7494,6.012,29044.19
420,"11.06.3",2,"a15:0",0,40.757,-28.534,1.074449,0.7494,6.012,25775.26
421,"11.06.3",1,"15:0",0,2.421,-22.892,1.080621,0.7494,6.012,3062.15
422,"11.06.3",2,"15:0",0,4.651,-28.36,1.074639,0.7494,6.012,2941.35
423,"11.06.3",1,"16:1n9/i16:0",0,4.272,-0.072,1.10558,0.7606,6.012,5085.57
424,"11.06.3",2,"16:1n9/i16:0",0,5.976,-23.118,1.080374,0.7606,6.012,3557.04
425,"11.06.3",1,"16:1w7",0,5.502,-26.37,1.076817,NA,6.012,NA
426,"11.06.3",2,"16:1w5",0,8.778,-26.668,1.076491,0.7554,6.012,5550.86
427,"11.06.3",1,"16:0",0,35.114,-23.801,1.079627,0.755,6.012,41797.32
428,"11.06.3",2,"16:0",0,55.572,-28.237,1.074774,0.755,6.012,33074.57
429,"11.06.3",1,"i17:0",0,5.689,-30.488,1.072311,0.76,6.012,6395.55
430,"11.06.3",2,"i17:0",0,3.28,-31.059,1.071686,0.76,6.012,1843.68
431,"11.06.3",1,"17:0cy",0,8.588,-27.086,1.076033,0.7654,6.012,9654.91
432,"11.06.3",2,"17:0cy",0,13.521,-29.477,1.073417,0.7654,6.012,7600.36
433,"11.06.3",1,"17:0",0,6.671,-31.132,1.071606,0.76,6.012,7499.51
434,"11.06.3",2,"17:0",0,10.36,-31.786,1.070891,0.76,6.012,5823.33
435,"11.06.3",1,"18:3n6",0,0.503,-18.995,1.084885,0.7765,6.012,565.48
436,"11.06.3",2,"18:3n6",0,0.868,-27.927,1.075112,0.7765,6.012,487.91
437,"11.06.3",1,"trans-18:1n9",0,11.047,-23.434,1.080028,0.7697,6.012,11765.74
438,"11.06.3",2,"trans-18:1n9",0,18.754,-27.879,1.075166,0.7697,6.012,9987.07
439,"11.06.3",1,"18:0",0,9.173,-24.297,1.079085,0.7645,6.012,9769.84
440,"11.06.3",2,"18:0",0,12.79,-30.738,1.072038,0.7645,6.012,6811.08
441,"11.06.3",1,"19:0cy",0,40.222,-34.346,1.068089,0.7736,6.012,40697.55
442,"11.06.3",2,"19:0cy",0,69.032,-32.364,1.070258,0.7736,6.012,34924.08
443,"11.06.3",1,"19:0",0,13.124,-33.926,1.068548,0.8216,6.012,13279.29
444,"11.06.3",2,"19:0",0,23.9,-31.897,1.070769,0.8216,6.012,12091.39
445,"11.06.3",2,"20:4n6",0,0.59,-38.458,1.063589,0.7919,6.012,284.28
446,"11.06.3",1,"20:4n6",0,0.457,-40.391,1.061474,0.7919,6.012,440.4
447,"11.06.3",1,"20:5n3",0,0.615,-35.411,1.066924,0.797,6.012,592.62
448,"11.06.3",2,"20:5n3",0,0.391,-31.531,1.07117,0.797,6.012,188.38
449,"11.10.1",2,"12:0",0,13.502,-30.343,1.072469,0.7285,6.056,7605.35
450,"11.10.1",2,"14:0",0,1.709,0.839,1.106576,0.7432,6.056,834.4
451,"11.10.1",2,"a15:0",0,38.955,-17.251,1.086792,0.7494,6.056,17830.08
452,"11.10.1",2,"15:0",0,3.82,-9.598,1.095163,0.7494,6.056,1748.45
453,"11.10.1",2,"16:1n9/i16:0",0,4.454,37.219,1.146338,0.7606,6.056,1918.75
454,"11.10.1",2,"16:1w5",0,7.29,-6.584,1.098459,0.7554,6.056,3336.44
455,"11.10.1",2,"16:0",0,43.355,56.616,1.167526,0.755,6.056,18675.26
456,"11.10.1",2,"i17:0",0,7.022,-28.132,1.074889,0.76,6.056,2856.68
457,"11.10.1",2,"17:0cy",0,12.06,-14.826,1.089445,0.7654,6.056,4906.4
458,"11.10.1",2,"17:0",0,9.166,-20.171,1.083598,0.76,6.056,3728.9
459,"11.10.1",2,"18:3n6",0,0.79,-4.087,1.10119,0.7765,6.056,321.39
460,"11.10.1",2,"trans-18:1n9",0,13.029,70.904,1.183126,0.7697,6.056,5021.64
461,"11.10.1",2,"18:0",0,8.72,75.561,1.18821,0.7645,6.056,3360.87
462,"11.10.1",2,"19:0cy",0,43.986,-23.512,1.079943,0.7736,6.056,16105.65
463,"11.10.1",2,"19:0",0,14.435,-29.674,1.073202,0.8216,6.056,5285.48
464,"11.10.1",2,"20:4n6",0,0.86,-24.357,1.079019,0.7919,6.056,299.91
465,"11.10.1",2,"20:5n3",0,1.024,-29.803,1.07306,0.797,6.056,357.08
466,"11.10.3",2,"12:0",0,14.193,-30.625,1.072161,0.7285,6.014,7252.08
467,"11.10.3",2,"14:0",0,3.342,-7.183,1.097804,0.7432,6.014,1480.14
468,"11.10.3",2,"a15:0",0,56.994,-17.058,1.087003,0.7494,6.014,23663.86
469,"11.10.3",2,"15:0",0,6.753,-15.168,1.089071,0.7494,6.014,2803.83
470,"11.10.3",2,"16:1n9/i16:0",0,8.452,11.33,1.118045,0.7606,6.014,3302.88
471,"11.10.3",2,"16:1w5",0,13.585,-18.963,1.084919,0.7554,6.014,5640.02
472,"11.10.3",2,"16:0",0,77.291,12.923,1.119787,0.755,6.014,30201.1
473,"11.10.3",2,"i17:0",0,11.218,-30.664,1.072118,0.76,6.014,4139.83
474,"11.10.3",2,"17:0cy",0,17.01,-22.578,1.080965,0.7654,6.014,6277.48
475,"11.10.3",2,"17:0",0,12.139,-26.38,1.076806,0.76,6.014,4479.72
476,"11.10.3",2,"18:3n6",0,0.943,-22.546,1.081,0.7765,6.014,348
477,"11.10.3",2,"trans-18:1n9",0,35.516,-6.403,1.098657,0.7697,6.014,12417.21
478,"11.10.3",2,"18:0",0,19.332,19.093,1.126531,0.7645,6.014,6758.93
479,"11.10.3",2,"19:0cy",0,90.724,-28.01,1.075022,0.7736,6.014,30133.68
480,"11.10.3",2,"19:0",0,17.192,-33.058,1.069499,0.8216,6.014,5710.32
481,"11.10.3",2,"20:4n6",0,1.544,-36.196,1.066065,0.7919,6.014,488.43
482,"11.10.3",2,"20:5n3",0,1.612,-34.246,1.068199,0.797,6.014,509.9
483,"12.01.2",3,"12:0",0,15.302,-30.638,1.072147,0.7285,6.028,9429.46
484,"12.01.2",3,"14:0",0,2.741,-14.014,1.090333,0.7432,6.028,1464.05
485,"12.01.2",3,"a15:0",0,48.597,-22.486,1.081066,0.7494,6.028,24334.17
486,"12.01.2",3,"15:0",0,4.74,-16.435,1.087685,0.7494,6.028,2373.48
487,"12.01.2",3,"16:1n9/i16:0",0,4.304,39.419,1.148741,0.7606,6.028,2028.41
488,"12.01.2",3,"16:1w5",0,6.531,-9.35,1.095433,0.7554,6.028,3270.02
489,"12.01.2",3,"16:0",0,37.641,48.647,1.158823,0.755,6.028,17738.03
490,"12.01.2",3,"i17:0",0,9.132,-30.965,1.071788,0.76,6.028,4064.28
491,"12.01.2",3,"17:0cy",0,12.058,-20.382,1.083367,0.7654,6.028,5366.7
492,"12.01.2",3,"17:0",0,8.9,-25.239,1.078054,0.76,6.028,3961.02
493,"12.01.2",3,"18:3n6",0,0.777,-25.569,1.077692,0.7765,6.028,345.81
494,"12.01.2",3,"trans-18:1n9",0,11.851,28.499,1.13681,0.7697,6.028,4996.96
495,"12.01.2",3,"18:0",0,8.499,66.287,1.178086,0.7645,6.028,3583.6
496,"12.01.2",3,"19:0cy",0,43.443,-24.802,1.078532,0.7736,6.028,17402.06
497,"12.01.2",3,"19:0",0,15.959,-31.251,1.071476,0.8216,6.028,6392.78
498,"12.01.2",3,"20:4n6",0,1.117,-20.241,1.083522,0.7919,6.028,426.15
499,"12.01.2",3,"20:5n3",0,2.632,-29.655,1.073222,0.797,6.028,1004.07
500,"12.01.3",2,"12:0",0,14.104,-30.967,1.071786,0.7285,6.03,16848.93
501,"12.01.3",2,"14:0",0,1.372,-10.497,1.094179,0.7432,6.03,1420.66
502,"12.01.3",2,"a15:0",0,27.336,-22.185,1.081394,0.7494,6.03,26535.88
503,"12.01.3",2,"15:0",0,3.096,-11.788,1.092768,0.7494,6.03,3005.38
504,"12.01.3",2,"16:1n9/i16:0",0,3.725,6.103,1.112332,0.7606,6.03,3403.31
505,"12.01.3",2,"16:1w5",0,5.774,-11.691,1.092873,0.7554,6.03,5604.54
506,"12.01.3",2,"16:0",0,32.428,46.986,1.157008,0.755,6.03,29624.83
507,"12.01.3",2,"i17:0",0,3.838,-34.079,1.068381,0.76,6.03,3311.42
508,"12.01.3",2,"17:0cy",0,7.943,-25.255,1.078036,0.7654,6.03,6853.43
509,"12.01.3",2,"17:0",0,5.945,-25.063,1.078246,0.76,6.03,5129.33
510,"12.01.3",2,"18:3n6",0,0.477,-14.033,1.090312,0.7765,6.03,411.57
511,"12.01.3",2,"trans-18:1n9",0,11.433,15.89,1.12303,0.7697,6.03,9345.49
512,"12.01.3",2,"18:0",0,7.676,54.468,1.16518,0.7645,6.03,6274.49
513,"12.01.3",2,"19:0cy",0,31.285,-28.578,1.0744,0.7736,6.03,24294.52
514,"12.01.3",2,"19:0",0,13.546,-31.688,1.070997,0.8216,6.03,10519.31
515,"12.01.3",2,"20:4n6",0,0.554,-37.611,1.064516,0.7919,6.03,409.74
516,"12.01.3",2,"20:5n3",0,0.855,-33.568,1.06894,0.797,6.03,632.31
517,"12.05.2",3,"12:0",0,15.94,-30.573,1.072217,0.7285,6.037,12455.93
518,"12.05.2",3,"14:0",0,1.189,54.166,1.16485,0.7432,6.037,805.33
519,"12.05.2",3,"a15:0",0,15.971,30.037,1.138491,0.7494,6.037,10141.18
520,"12.05.2",3,"15:0",0,1.31,50.495,1.16084,0.7494,6.037,831.82
521,"12.05.2",3,"16:1n9/i16:0",0,0.215,31.062,1.139611,0.7606,6.037,128.49
522,"12.05.2",3,"16:1w5",0,2.24,226.54,1.352746,0.7554,6.037,1422.22
523,"12.05.2",3,"16:0",0,17.082,352.975,1.490113,0.755,6.037,10207.81
524,"12.05.2",3,"i17:0",0,1.778,-40.914,1.060902,0.76,6.037,1003.46
525,"12.05.2",3,"17:0cy",0,5.454,14.448,1.121454,0.7654,6.037,3078.19
526,"12.05.2",3,"17:0",0,4.679,13.109,1.11999,0.76,6.037,2640.71
527,"12.05.2",3,"18:3n6",0,0.443,34.511,1.14338,0.7765,6.037,250.02
528,"12.05.2",3,"18:2n9,12 and cis-18:1n9 and 183n3",0,4.688,266.594,1.396305,0.775,6.037,2506.52
529,"12.05.2",3,"18:0",0,3.484,548.84,1.702158,0.7645,6.037,1862.85
530,"12.05.2",3,"19:0cy",0,15.827,18.456,1.125835,0.7736,6.037,8039.5
531,"12.05.2",3,"19:0",0,16.01,-29.087,1.073844,0.8216,6.037,8132.52
532,"12.05.2",3,"20:5n3",0,3.453,-32.887,1.069686,0.797,6.037,1670.42
533,"12.05.3",2,"12:0",0,12.291,-42.653,1.058998,0.7285,5.999,5071.13
534,"12.05.3",2,"14:0",0,0.866,-13.505,1.09089,0.7432,5.999,309.7
535,"12.05.3",2,"a15:0",0,14.038,-22.808,1.080713,0.7494,5.999,4706.43
536,"12.05.3",2,"15:0",0,1.857,-13.41,1.090994,0.7494,5.999,622.58
537,"12.05.3",2,"16:1n9/i16:0",0,1.378,34.863,1.143764,0.7606,5.999,434.82
538,"12.05.3",2,"16:1w5",0,2.184,-9.845,1.094893,0.7554,5.999,732.15
539,"12.05.3",2,"16:0",0,12.621,65.216,1.176916,0.755,5.999,3982.15
540,"12.05.3",2,"i17:0",0,3.614,-31.863,1.070806,0.76,5.999,1076.92
541,"12.05.3",2,"17:0cy",0,3.17,-19.826,1.083975,0.7654,5.999,944.65
542,"12.05.3",2,"17:0",0,2.559,-21.264,1.082403,0.76,5.999,762.55
543,"12.05.3",2,"trans-18:1n9",0,3.914,43.595,1.153304,0.7697,5.999,1104.97
544,"12.05.3",2,"18:0",0,2.899,68.389,1.180381,0.7645,5.999,818.42
545,"12.05.3",2,"19:0cy",0,8.691,-21.476,1.08217,0.7736,5.999,2330.93
546,"12.05.3",2,"19:0",0,11.059,-31.359,1.071357,0.8216,5.999,2966.06
547,"12.05.3",2,"20:5n3",0,0.877,-30.015,1.072829,0.797,5.999,224
548,"12.09.1",2,"12:0",0,14.344,-30.397,1.07241,0.7285,6,17450.33
549,"12.09.1",2,"14:0",0,1.657,29.624,1.138039,0.7432,6,1747.28
550,"12.09.1",2,"a15:0",0,30.816,-0.909,1.104664,0.7494,6,30463.36
551,"12.09.1",2,"15:0",0,3.197,13.128,1.120012,0.7494,6,3160.41
552,"12.09.1",2,"16:1n9/i16:0",0,3.971,107.947,1.223551,0.7606,6,3694.7
553,"12.09.1",2,"16:1w5",0,6.158,18.228,1.125585,0.7554,6,6087.03
554,"12.09.1",2,"16:0",0,38.201,161.788,1.282247,0.755,6,35539.7
555,"12.09.1",2,"i17:0",0,1.929,-36.035,1.066241,0.76,6,1694.9
556,"12.09.1",2,"17:0cy",0,11.455,-1.329,1.104205,0.7654,6,10065.18
557,"12.09.1",2,"17:0",0,8.82,-12.857,1.091599,0.76,6,7749.63
558,"12.09.1",2,"18:3n6",0,0.662,5.6,1.111781,0.7765,6,581.67
559,"12.09.1",2,"trans-18:1n9",0,12.762,90.944,1.205,0.7697,6,10623.42
560,"12.09.1",2,"18:0",0,8.077,196.787,1.320365,0.7645,6,6723.52
561,"12.09.1",2,"19:0cy",0,45.096,-15.551,1.088652,0.7736,6,35662.63
562,"12.09.1",2,"19:0",0,14.572,-32.249,1.070383,0.8216,6,11523.86
563,"12.09.1",2,"20:4n6",0,0.329,-33.964,1.068507,0.7919,6,247.8
564,"12.09.2",2,"12:0",0,13.461,-30.251,1.07257,0.7285,6.02,9647.14
565,"12.09.2",2,"14:0",0,1.269,46.054,1.15599,0.7432,6.02,788.29
566,"12.09.2",2,"a15:0",0,24.643,12.105,1.118893,0.7494,6.02,14351.02
567,"12.09.2",2,"15:0",0,2.667,29.62,1.138036,0.7494,6.02,1553.14
568,"12.09.2",2,"16:1n9/i16:0",0,2.928,158.685,1.278866,0.7606,6.02,1604.87
569,"12.09.2",2,"16:1w5",0,4.525,38.06,1.147258,0.7554,6.02,2634.95
570,"12.09.2",2,"16:0",0,25.569,251.095,1.379454,0.755,6.02,14013.3
571,"12.09.2",2,"i17:0",0,3.733,-31.2,1.071532,0.76,6.02,1932.23
572,"12.09.2",2,"17:0cy",0,7.34,14.695,1.121724,0.7654,6.02,3799.36
573,"12.09.2",2,"17:0",0,5.517,2.45,1.108337,0.76,6.02,2855.64
574,"12.09.2",2,"18:3n6",0,0.526,24.575,1.132522,0.7765,6.02,272.27
575,"12.09.2",2,"trans-18:1n9",0,7.498,159.85,1.280136,0.7697,6.02,3676.88
576,"12.09.2",2,"18:0",0,5.454,314.855,1.448737,0.7645,6.02,2674.54
577,"12.09.2",2,"19:0cy",0,27.9,7.153,1.113479,0.7736,6.02,12997.73
578,"12.09.2",2,"19:0",0,13.434,-26.74,1.076411,0.8216,6.02,6258.53
579,"12.09.2",2,"20:5n3",0,0.933,-18.584,1.085334,0.797,6.02,413.94
580,"12.09.3",2,"12:0",0,15.216,-30.719,1.072057,0.7285,6.002,6039.83
581,"12.09.3",2,"14:0",0,3.07,-10.279,1.094418,0.7432,6.002,1056.26
582,"12.09.3",2,"a15:0",0,48.74,-18.29,1.085655,0.7494,6.002,15720.91
583,"12.09.3",2,"15:0",0,5.944,-16.025,1.088133,0.7494,6.002,1917.23
584,"12.09.3",2,"16:1n9/i16:0",0,7.565,-0.765,1.104823,0.7606,6.002,2296.56
585,"12.09.3",2,"16:1w5",0,11.644,-19.047,1.084827,0.7554,6.002,3755.43
586,"12.09.3",2,"16:0",0,61.866,16.338,1.12352,0.755,6.002,18779.39
587,"12.09.3",2,"i17:0",0,9.974,-30.773,1.071999,0.76,6.002,2859.39
588,"12.09.3",2,"17:0cy",0,14.987,-23.872,1.079549,0.7654,6.002,4296.66
589,"12.09.3",2,"17:0",0,11.133,-26.842,1.0763,0.76,6.002,3191.65
590,"12.09.3",2,"18:3n6",0,0.79,-18.223,1.085729,0.7765,6.002,226.48
591,"12.09.3",2,"trans-18:1n9",0,20.521,8.969,1.115465,0.7697,6.002,5573.58
592,"12.09.3",2,"18:0",0,15.044,24.953,1.132935,0.7645,6.002,4086.02
593,"12.09.3",2,"19:0cy",0,64.241,-26.662,1.076497,0.7736,6.002,16575.95
594,"12.09.3",2,"19:0",0,16.735,-31.572,1.071124,0.8216,6.002,4318.13
595,"12.09.3",2,"20:4n6",0,1.12,-34.021,1.068445,0.7919,6.002,275.24
596,"12.09.3",2,"20:5n3",0,2.614,-33.628,1.068875,0.797,6.002,642.34
597,"14.10.1",3,"12:0",0,16.241,-30.666,1.072116,0.7285,6.035,6061.88
598,"14.10.1",3,"14:0",0,1.537,68.983,1.181029,0.7432,6.035,497.26
599,"14.10.1",3,"a15:0",0,24.195,8.594,1.115055,0.7494,6.035,7338.19
600,"14.10.1",3,"15:0",0,2.442,7.845,1.114235,0.7494,6.035,740.64
601,"14.10.1",3,"16:1n9/i16:0",0,3.383,419.758,1.562515,0.7606,6.035,965.7
602,"14.10.1",3,"16:1w5",0,4.515,12.205,1.119003,0.7554,6.035,1369.26
603,"14.10.1",3,"16:0",0,34.712,61.311,1.172653,0.755,6.035,9907.87
604,"14.10.1",3,"i17:0",0,7.351,-25.813,1.077426,0.76,6.035,1981.62
605,"14.10.1",3,"17:0cy",0,9.49,-5.27,1.099896,0.7654,6.035,2558.31
606,"14.10.1",3,"17:0",0,7.67,-23.554,1.079897,0.76,6.035,2067.61
607,"14.10.1",3,"18:3n6",0,0.584,-2.43,1.103001,0.7765,6.035,157.44
608,"14.10.1",3,"trans-18:1n9",0,10.65,9.473,1.116016,0.7697,6.035,2719.92
609,"14.10.1",3,"18:0",0,7.989,59.587,1.17077,0.7645,6.035,2040.33
610,"14.10.1",3,"19:0cy",0,40.361,-31.36,1.071357,0.7736,6.035,9792.62
611,"14.10.1",3,"19:0",0,17.3,-32.108,1.070538,0.8216,6.035,4197.46
612,"14.10.1",3,"20:4n6",0,1.016,-24.12,1.079278,0.7919,6.035,234.78
613,"14.10.2",3,"12:0",0,16.84,-30.854,1.071911,0.7285,6.001,5897.87
614,"14.10.2",3,"14:0",0,0.407,2.982,1.108919,0.7432,6.001,123.55
615,"14.10.2",3,"a15:0",0,25.014,16.752,1.123972,0.7494,6.001,7118.77
616,"14.10.2",3,"15:0",0,2.657,13.581,1.120507,0.7494,6.001,756.16
617,"14.10.2",3,"16:1n9/i16:0",0,4.499,328.285,1.463318,0.7606,6.001,1205.07
618,"14.10.2",3,"16:1w5",0,4.844,14.124,1.1211,0.7554,6.001,1378.45
619,"14.10.2",3,"16:0",0,35.449,94.229,1.208585,0.755,6.001,9494.3
620,"14.10.2",3,"i17:0",0,0.623,-37.246,1.064916,0.76,6.001,157.59
621,"14.10.2",3,"17:0cy",0,8.711,-6.231,1.098844,0.7654,6.001,2203.51
622,"14.10.2",3,"17:0",0,6.824,-21.544,1.082096,0.76,6.001,1726.12
623,"14.10.2",3,"18:3n6",0,0.518,135.462,1.253556,0.7765,6.001,131.03
624,"14.10.2",3,"18:2n9,12 and cis-18:1n9 and 183n3",0,9.459,80.945,1.194087,0.775,6.001,2266.69
625,"14.10.2",3,"18:0",0,10.001,68.893,1.180931,0.7645,6.001,2396.68
626,"14.10.2",3,"19:0cy",0,33.97,-30.026,1.072816,0.7736,6.001,7733.76
627,"14.10.2",3,"19:0",0,17.304,-32.858,1.069717,0.8216,6.001,3939.54
628,"14.10.2",3,"20:4n6",0,0.55,-26.782,1.076366,0.7919,6.001,119.26
629,"14.10.3",3,"12:0",0,16.072,-30.77,1.072002,0.7285,6.039,4981.24
630,"14.10.3",3,"14:0",0,1.461,-25.826,1.077411,0.7432,6.039,392.49
631,"14.10.3",3,"a15:0",0,22.802,-28.025,1.075005,0.7494,6.039,5742.61
632,"14.10.3",3,"15:0",0,2.369,-29.528,1.073361,0.7494,6.039,596.63
633,"14.10.3",3,"16:1n9/i16:0",0,4,-20.593,1.083137,0.7606,6.039,948.14
634,"14.10.3",3,"16:1w5",0,5.128,-28.761,1.074201,0.7554,6.039,1291.36
635,"14.10.3",3,"16:0",0,35.763,-27.818,1.075232,0.755,6.039,8476.32
636,"14.10.3",3,"i17:0",0,0.456,-33.242,1.069298,0.76,6.039,102.07
637,"14.10.3",3,"17:0cy",0,8.387,-31.064,1.07168,0.7654,6.039,1877.44
638,"14.10.3",3,"17:0",0,6.607,-33.258,1.06928,0.76,6.039,1478.94
639,"14.10.3",3,"18:3n6",0,0.479,-29.896,1.072959,0.7765,6.039,107.23
640,"14.10.3",3,"trans-18:1n9",0,11.278,-26.687,1.076469,0.7697,6.039,2391.73
641,"14.10.3",3,"18:0",0,9.767,-30.411,1.072395,0.7645,6.039,2071.3
642,"14.10.3",3,"19:0cy",0,38.256,-34.764,1.067632,0.7736,6.039,7707.42
643,"14.10.3",3,"19:0",0,15.696,-33.349,1.06918,0.8216,6.039,3162.29
644,"14.10.3",3,"20:4n6",0,0.516,-40.845,1.060977,0.7919,6.039,99.01
645,"15.16.2",2,"12:0",0,14.291,-41.284,1.060497,0.7285,6.092,3271.06
646,"15.16.2",2,"14:0",0,2.07,-9.916,1.094815,0.7432,6.092,410.68
647,"15.16.2",2,"a15:0",0,40.035,-21.179,1.082495,0.7494,6.092,7446.17
648,"15.16.2",2,"15:0",0,4.385,-11.921,1.092622,0.7494,6.092,815.57
649,"15.16.2",2,"16:1n9/i16:0",0,5.002,10.89,1.117564,0.7606,6.092,875.62
650,"15.16.2",2,"16:0",0,7.682,-14.377,1.089936,0.755,6.092,1344.63
651,"15.16.2",2,"i17:0",0,7.017,-30.028,1.072814,0.76,6.092,1159.99
652,"15.16.2",2,"17:0cy",0,12.014,-19.794,1.084011,0.7654,6.092,1986.12
653,"15.16.2",2,"17:0",0,9.07,-24.237,1.07915,0.76,6.092,1499.37
654,"15.16.2",2,"18:3n6",0,0.773,-14.238,1.090087,0.7765,6.092,127.8
655,"15.16.2",2,"trans-18:1n9",0,14.126,17.892,1.125218,0.7697,6.092,2212.37
656,"15.16.2",2,"18:0",0,11.935,34.328,1.14318,0.7645,6.092,1869.21
657,"15.16.2",2,"19:0cy",0,41.668,-28.231,1.07478,0.7736,6.092,6199.67
658,"15.16.2",2,"19:0",0,15.135,-32.18,1.070459,0.8216,6.092,2251.92
659,"15.16.2",2,"20:4n6",0,0.714,-35.267,1.067082,0.7919,6.092,101.17
660,"15.16.2",2,"20:5n3",0,1.775,-32.532,1.070075,0.797,6.092,251.52
661,"17.01.1",3,"12:0",0,16.314,-44.238,1.057263,0.7285,6.007,5887.64
662,"17.01.1",3,"14:0",0,1.747,-3.721,1.101589,0.7432,6.007,546.49
663,"17.01.1",3,"a15:0",0,35.591,-11.742,1.092818,0.7494,6.007,10437.33
664,"17.01.1",3,"15:0",0,4.053,-14.224,1.090103,0.7494,6.007,1188.57
665,"17.01.1",3,"16:1n9/i16:0",0,4.251,83.389,1.196755,0.7606,6.007,1173.33
666,"17.01.1",3,"16:1w5",0,5.971,-17.31,1.086728,0.7554,6.007,1750.9
667,"17.01.1",3,"16:0",0,44.191,-10.5,1.094177,0.755,6.007,12196.09
668,"17.01.1",3,"i17:0",0,8.043,-27.63,1.075438,0.76,6.007,2096.42
669,"17.01.1",3,"17:0cy",0,12.676,-20.436,1.083308,0.7654,6.007,3304.12
670,"17.01.1",3,"17:0",0,9.356,-29.893,1.072961,0.76,6.007,2438.66
671,"17.01.1",3,"18:3n6",0,0.903,-14.922,1.089339,0.7765,6.007,235.38
672,"17.01.1",3,"trans-18:1n9",0,12.35,-13.869,1.090491,0.7697,6.007,3049.72
673,"17.01.1",3,"18:0",0,9.852,-10.716,1.09394,0.7645,6.007,2432.87
674,"17.01.1",3,"19:0cy",0,52.633,-35.242,1.067109,0.7736,6.007,12347.56
675,"17.01.1",3,"19:0",0,18.002,-34.019,1.068447,0.8216,6.007,4223.26
676,"17.01.1",3,"20:4n6",0,0.82,-33.525,1.068988,0.7919,6.007,183.22
677,"17.01.1",3,"20:5n3",0,1.204,-32.853,1.069723,0.797,6.007,268.99
678,"17.01.1b",3,"12:0",0,14.918,-31.056,1.071689,0.7285,5.999,5908.01
679,"17.01.1b",3,"14:0",0,1.978,-10.831,1.093814,0.7432,5.999,679
680,"17.01.1b",3,"a15:0",0,33.217,-15.464,1.088746,0.7494,5.999,10689.56
681,"17.01.1b",3,"15:0",0,3.316,-15.456,1.088755,0.7494,5.999,1067.12
682,"17.01.1b",3,"16:1n9/i16:0",0,1.478,150.412,1.269851,0.7606,5.999,447.66
683,"17.01.1b",3,"16:1w5",0,2.586,-35.947,1.066337,0.7554,5.999,832.14
684,"17.01.1b",3,"16:0",0,19.411,-6.047,1.099046,0.755,5.999,5878.74
685,"17.01.1b",3,"i17:0",0,8.254,-32.537,1.070069,0.76,5.999,2360.88
686,"17.01.1b",3,"17:0cy",0,5.565,-16.667,1.087431,0.7654,5.999,1591.8
687,"17.01.1b",3,"17:0",0,4.791,-27.772,1.075282,0.76,5.999,1370.37
688,"17.01.1b",3,"18:3n6",0,6.553,-35.883,1.066407,0.7765,5.999,1874.37
689,"17.01.1b",3,"trans-18:1n9",0,5.853,33.048,1.141781,0.7697,5.999,1586.07
690,"17.01.1b",3,"18:0",0,4.786,-0.379,1.105244,0.7645,5.999,1296.93
691,"17.01.1b",3,"19:0cy",0,20.973,-33.446,1.069074,0.7736,5.999,5399.26
692,"17.01.1b",3,"19:0",0,13.815,-32.444,1.07017,0.8216,5.999,3556.54
693,"17.01.1b",3,"20:4n6",0,0.667,-37.936,1.064161,0.7919,5.999,163.54
694,"17.01.1b",3,"20:5n3",0,3.146,-32.305,1.070323,0.797,5.999,771.31
695,"17.01.3",3,"12:0",0,16.989,-39.093,1.062895,0.7285,6.062,2553.7
696,"17.01.3",3,"14:0",0,2.004,-20.464,1.083277,0.7432,6.062,261.11
697,"17.01.3",3,"a15:0",0,44.317,-24.867,1.078461,0.7494,6.062,5413.03
698,"17.01.3",3,"15:0",0,4.644,-25.892,1.077339,0.7494,6.062,567.24
699,"17.01.3",3,"16:1n9/i16:0",0,4.713,8.915,1.115405,0.7606,6.062,541.8
700,"17.01.3",3,"16:1w5",0,7.273,-23.785,1.079644,0.7554,6.062,888.28
701,"17.01.3",3,"16:0",0,54.132,-22.158,1.081424,0.755,6.062,6222.44
702,"17.01.3",3,"17:0cy",0,15.697,-27.262,1.07584,0.7654,6.062,1704.16
703,"17.01.3",3,"17:0",0,12.211,-32.76,1.069825,0.76,6.062,1325.66
704,"17.01.3",3,"18:3n6",0,0.959,-14.901,1.089363,0.7765,6.062,104.11
705,"17.01.3",3,"trans-18:1n9",0,16.564,-27.501,1.075579,0.7697,6.062,1703.64
706,"17.01.3",3,"18:0",0,11.981,-22.03,1.081564,0.7645,6.062,1232.27
707,"17.01.3",3,"19:0cy",0,73.052,-34.335,1.068102,0.7736,6.062,7137.98
708,"17.01.3",3,"19:0",0,19.862,-33.419,1.069104,0.8216,6.062,1940.75
709,"17.01.3",3,"20:4n6",0,0.951,-35.077,1.06729,0.7919,6.062,88.5
710,"17.01.3",3,"20:5n3",0,1.325,-35.219,1.067134,0.797,6.062,123.3
711,"17.06.1",3,"12:0",0,16.268,-50.709,1.05018,0.7285,6.036,4780.43
712,"17.06.1",3,"14:0",0,3.821,19.059,1.126494,0.7432,6.036,973.23
713,"17.06.1",3,"a15:0",0,59.17,-6.058,1.099034,0.7494,6.036,14128.7
714,"17.06.1",3,"15:0",0,6.329,-14.059,1.090283,0.7494,6.036,1511.24
715,"17.06.1",3,"16:1n9/i16:0",0,6.519,224.815,1.350869,0.7606,6.036,1465.08
716,"17.06.1",3,"16:1w5",0,7.486,3.69,1.109693,0.7554,6.036,1787.38
717,"17.06.1",3,"16:0",0,54.889,43.064,1.152724,0.755,6.036,12334.55
718,"17.06.1",3,"i17:0",0,8.418,-28.409,1.074586,0.76,6.036,1786.57
719,"17.06.1",3,"17:0cy",0,15.368,-10.868,1.093774,0.7654,6.036,3261.69
720,"17.06.1",3,"17:0",0,11.339,-25.661,1.077592,0.76,6.036,2406.51
721,"17.06.1",3,"18:3n6",0,1.02,-16.051,1.088104,0.7765,6.036,216.48
722,"17.06.1",3,"trans-18:1n9",0,17.328,36.715,1.145788,0.7697,6.036,3484.12
723,"17.06.1",3,"18:0",0,12.751,37.047,1.14615,0.7645,6.036,2563.83
724,"17.06.1",3,"19:0cy",0,74.813,-32.34,1.070284,0.7736,6.036,14290.64
725,"17.06.1",3,"19:0",0,17.07,-32.913,1.069657,0.8216,6.036,3260.71
726,"17.06.1",3,"20:4n6",0,1.807,-24.224,1.079165,0.7919,6.036,328.74
727,"17.06.1",3,"20:5n3",0,2.632,-30.103,1.072732,0.797,6.036,478.8
728,"17.06.2",3,"12:0",0,17.298,-30.7,1.072079,0.7285,6.013,4559.51
729,"17.06.2",3,"14:0",0,1.459,-24.541,1.078818,0.7432,6.013,333.34
730,"17.06.2",3,"a15:0",0,61.452,-15.378,1.088841,0.7494,6.013,13162.16
731,"17.06.2",3,"15:0",0,6.829,-22.47,1.081083,0.7494,6.013,1462.68
732,"17.06.2",3,"16:1n9/i16:0",0,7.19,39.093,1.148386,0.7606,6.013,1449.43
733,"17.06.2",3,"16:1w5",0,8.661,-7.208,1.097777,0.7554,6.013,1854.92
734,"17.06.2",3,"16:0",0,59.52,-5.43,1.099721,0.755,6.013,11997.52
735,"17.06.2",3,"i17:0",0,10.416,-29.632,1.073247,0.76,6.013,1982.91
736,"17.06.2",3,"17:0cy",0,16.959,-18.722,1.085183,0.7654,6.013,3228.61
737,"17.06.2",3,"17:0",0,12.901,-28.651,1.07432,0.76,6.013,2455.98
738,"17.06.2",3,"18:3n6",0,1.053,-22.676,1.080858,0.7765,6.013,200.46
739,"17.06.2",3,"18:2n9,12 and cis-18:1n9 and 183n3",0,20.228,-12.166,1.092354,0.775,6.013,3648.13
740,"17.06.2",3,"18:0",0,16.503,-10.993,1.093637,0.7645,6.013,2976.46
741,"17.06.2",3,"19:0cy",0,65.168,-32.754,1.069831,0.7736,6.013,11166.04
742,"17.06.2",3,"19:0",0,18.85,-32.744,1.069842,0.8216,6.013,3229.83
743,"17.06.2",3,"20:4n6",0,1.882,-23.432,1.080031,0.7919,6.013,307.12
744,"17.06.2",3,"20:5n3",0,2.874,-30.516,1.07228,0.797,6.013,468.97
745,"17.06.3",3,"12:0",0,15.135,-31.129,1.071609,0.7285,6.02,4491.66
746,"17.06.3",3,"14:0",0,2.747,-29.075,1.073857,0.7432,6.02,706.63
747,"17.06.3",3,"a15:0",0,46.03,-30.549,1.072244,0.7494,6.02,11100.27
748,"17.06.3",3,"15:0",0,5.414,-30.773,1.071998,0.7494,6.02,1305.6
749,"17.06.3",3,"16:1n9/i16:0",0,4.447,-21.347,1.082311,0.7606,6.02,1009.34
750,"17.06.3",3,"16:1w5",0,5.924,-29.584,1.0733,0.7554,6.02,1428.47
751,"17.06.3",3,"16:0",0,44.535,-29.971,1.072876,0.755,6.02,10107.21
752,"17.06.3",3,"i17:0",0,8.113,-32.174,1.070466,0.76,6.02,1738.95
753,"17.06.3",3,"17:0cy",0,11.962,-30.918,1.07184,0.7654,6.02,2564.02
754,"17.06.3",3,"17:0",0,9.322,-34.58,1.067833,0.76,6.02,1998.07
755,"17.06.3",3,"18:3n6",0,0.687,-18.655,1.085256,0.7765,6.02,147.26
756,"17.06.3",3,"trans-18:1n9",0,16,-29.511,1.07338,0.7697,6.02,3249.04
757,"17.06.3",3,"18:0",0,10.409,-30.184,1.072643,0.7645,6.02,2113.71
758,"17.06.3",3,"19:0cy",0,51.246,-34.95,1.067428,0.7736,6.02,9886.12
759,"17.06.3",3,"19:0",0,15.754,-32.923,1.069646,0.8216,6.02,3039.2
760,"17.06.3",3,"20:4n6",0,1.161,-35.712,1.066594,0.7919,6.02,213.31
761,"17.06.3",3,"20:5n3",0,2.386,-32.513,1.070095,0.797,6.02,438.36
762,"18.05.1",3,"12:0",0,14.9,-30.797,1.071972,0.7285,6.095,5677.36
763,"18.05.1",3,"a15:0",0,36.705,-17.892,1.086091,0.7494,6.095,11364.58
764,"18.05.1",3,"15:0",0,3.656,-16.556,1.087552,0.7494,6.095,1131.97
765,"18.05.1",3,"16:1n9/i16:0",0,3.609,58.211,1.169268,0.7606,6.095,1051.7
766,"18.05.1",3,"16:1w5",0,4.858,-12.848,1.091608,0.7554,6.095,1504
767,"18.05.1",3,"16:0",0,39.489,10.349,1.116973,0.755,6.095,11506.46
768,"18.05.1",3,"i17:0",0,5.917,-32.127,1.070517,0.76,6.095,1628.32
769,"18.05.1",3,"17:0cy",0,10.929,-18.032,1.085938,0.7654,6.095,3007.69
770,"18.05.1",3,"17:0",0,8.605,-28.716,1.07425,0.76,6.095,2368.05
771,"18.05.1",3,"18:3n6",0,0.816,15.505,1.12261,0.7765,6.095,224.56
772,"18.05.1",3,"trans-18:1n9",0,12.442,14.332,1.121328,0.7697,6.095,3243.86
773,"18.05.1",3,"18:0",0,8.854,3.314,1.109282,0.7645,6.095,2308.41
774,"18.05.1",3,"19:0",0,52.389,-33.987,1.068482,0.8216,6.095,12976.14
775,"18.05.1",3,"20:4n6",0,0.527,-24.592,1.078761,0.7919,6.095,124.32
776,"18.05.1",3,"20:5n3",0,1.839,-31.899,1.070767,0.797,6.095,433.79
777,"18.05.2",2,"12:0",0,17.593,-31.539,1.071161,0.7285,6.008,9274.24
778,"18.05.2",2,"14:0",0,6.146,-8.258,1.096628,0.7432,6.008,2808.27
779,"18.05.2",2,"a15:0",0,43.022,-6.132,1.098953,0.7494,6.008,18428.8
780,"18.05.2",2,"15:0",0,12.597,-24.119,1.079279,0.7494,6.008,5396.01
781,"18.05.2",2,"16:1n9/i16:0",0,18.197,92.269,1.206445,0.7606,6.008,7336.41
782,"18.05.2",2,"16:1w5",0,9.722,-6.852,1.098165,0.7554,6.008,4164.15
783,"18.05.2",2,"16:0",0,40.683,88.364,1.202185,0.755,6.008,16400.48
784,"18.05.2",2,"i17:0",0,12.503,-29.327,1.073581,0.76,6.008,4760.27
785,"18.05.2",2,"17:0cy",0,16.102,-17.924,1.086056,0.7654,6.008,6130.72
786,"18.05.2",2,"17:0",0,15.503,-12.615,1.091863,0.76,6.008,5902.46
787,"18.05.2",2,"18:3n6",0,6.447,-25.776,1.077466,0.7765,6.008,2454.6
788,"18.05.2",2,"trans-18:1n9",0,18.311,-0.326,1.105302,0.7697,6.008,6604.84
789,"18.05.2",2,"18:0",0,12.012,68.79,1.180819,0.7645,6.008,4332.78
790,"18.05.2",2,"19:0cy",0,35.074,-27.732,1.075326,0.7736,6.008,12018.92
791,"18.05.2",2,"19:0",0,19.604,-31.597,1.071098,0.8216,6.008,6717.82
792,"18.05.2",2,"20:4n6",0,9.51,-22.984,1.08052,0.7919,6.008,3103.76
793,"18.05.2",2,"20:5n3",0,10.077,-27.34,1.075754,0.797,6.008,3288.58
794,"18.05.3",2,"12:0",0,23.389,-30.118,1.072716,0.7285,6.001,10003.84
795,"18.05.3",2,"14:0",0,2.473,-19.296,1.084555,0.7432,6.001,916.83
796,"18.05.3",2,"a15:0",0,40.611,-22.289,1.081281,0.7494,6.001,14114.55
797,"18.05.3",2,"15:0",0,4.894,-22.323,1.081244,0.7494,6.001,1700.93
798,"18.05.3",2,"16:1n9/i16:0",0,5.196,12.39,1.119204,0.7606,6.001,1699.69
799,"18.05.3",2,"16:1w5",0,7.067,-25.256,1.078035,0.7554,6.001,2455.97
800,"18.05.3",2,"16:0",0,53.494,-21.604,1.082031,0.755,6.001,17497.07
801,"18.05.3",2,"i17:0",0,5.906,-32.358,1.070265,0.76,6.001,1824.44
802,"18.05.3",2,"17:0cy",0,11.789,-27.285,1.075816,0.7654,6.001,3641.88
803,"18.05.3",2,"17:0",0,9.497,-31.888,1.070779,0.76,6.001,2933.73
804,"18.05.3",2,"18:3n6",0,0.79,-8.906,1.09592,0.7765,6.001,244.04
805,"18.05.3",2,"trans-18:1n9",0,19.255,-23.828,1.079598,0.7697,6.001,5635.22
806,"18.05.3",2,"18:0",0,12.725,-20.185,1.083583,0.7645,6.001,3724.13
807,"18.05.3",2,"19:0cy",0,51.257,-34.727,1.067672,0.7736,6.001,14251.17
808,"18.05.3",2,"19:0",0,21.567,-31.721,1.070962,0.8216,6.001,5996.4
809,"18.05.3",2,"20:4n6",0,1.037,-40.288,1.061586,0.7919,6.001,274.61
810,"18.05.3",2,"20:5n3",0,1.295,-35.948,1.066336,0.797,6.001,342.9
811,"20.04.1",3,"12:0",0,19.005,-30.964,1.071789,0.7285,6,5333.12
812,"20.04.1",3,"14:0",0,1.525,58.673,1.169772,0.7432,6,370.93
813,"20.04.1",3,"a15:0",0,22.802,36.138,1.145158,0.7494,6,5199.42
814,"20.04.1",3,"15:0",0,2.734,12.051,1.118834,0.7494,6,623.42
815,"20.04.1",3,"16:1n9/i16:0",0,3.286,410.839,1.552852,0.7606,6,705.23
816,"20.04.1",3,"16:1w5",0,4.405,15.096,1.122163,0.7554,6,1004.37
817,"20.04.1",3,"16:0",0,27.871,66.791,1.178637,0.755,6,5980.98
818,"20.04.1",3,"i17:0",0,7.357,-26,1.077221,0.76,6,1491.06
819,"20.04.1",3,"17:0cy",0,8.266,6.989,1.1133,0.7654,6,1675.34
820,"20.04.1",3,"17:0",0,6.073,-23.342,1.080129,0.76,6,1230.83
821,"20.04.1",3,"18:3n6",0,0.507,8.868,1.115354,0.7765,6,102.76
822,"20.04.1",3,"18:2n9,12 and cis-18:1n9 and 183n3",0,8.645,19.43,1.126899,0.775,6,1659.88
823,"20.04.1",3,"18:0",0,5.914,64.396,1.176021,0.7645,6,1135.55
824,"20.04.1",3,"19:0cy",0,31.961,-31.643,1.071046,0.7736,6,5830.11
825,"20.04.1",3,"19:0",0,18.236,-33.186,1.069358,0.8216,6,3326.52
826,"20.04.1",3,"20:4n6",0,0.362,23.366,1.131201,0.7919,6,62.89
827,"20.04.1",3,"20:5n3",0,0.312,-3.613,1.101708,0.797,6,54.2
828,"20.04.2",3,"12:0",0,15.767,-30.701,1.072077,0.7285,5.901,5793.43
829,"20.04.2",3,"a15:0",0,25.82,-19.303,1.084548,0.7494,5.901,7709.23
830,"20.04.2",3,"15:0",0,2.578,-20.191,1.083576,0.7494,5.901,769.73
831,"20.04.2",3,"16:1n9/i16:0",0,3.454,19.063,1.126499,0.7606,5.901,970.63
832,"20.04.2",3,"16:1w5",0,4.701,-20.05,1.08373,0.7554,5.901,1403.49
833,"20.04.2",3,"16:0",0,35.434,-12.214,1.092302,0.755,5.901,9956.63
834,"20.04.2",3,"i17:0",0,7.031,-31.891,1.070776,0.76,5.901,1865.88
835,"20.04.2",3,"17:0cy",0,10.16,-23.923,1.079493,0.7654,5.901,2696.34
836,"20.04.2",3,"17:0",0,8.404,-30.626,1.07216,0.76,5.901,2230.24
837,"20.04.2",3,"18:3n6",0,0.582,-13.211,1.091211,0.7765,5.901,154.45
838,"20.04.2",3,"18:2n9,12 and cis-18:1n9 and 183n3",0,9.773,-9.201,1.095596,0.775,5.901,2457.03
839,"20.04.2",3,"18:0",0,7.875,-15.119,1.089124,0.7645,5.901,1979.93
840,"20.04.2",3,"19:0cy",0,48.387,-33.89,1.068588,0.7736,5.901,11557.32
841,"20.04.2",3,"19:0",0,17.124,-33.892,1.068586,0.8216,5.901,4090.13
842,"20.04.2",3,"20:4n6",0,0.403,-37.559,1.064574,0.7919,5.901,91.68
843,"22.07.2",2,"12:0",0,22.621,-29.427,1.073472,0.7285,6.025,14507.55
844,"22.07.2",2,"14:0",0,2.768,31.131,1.139687,0.7432,6.025,1538.72
845,"22.07.2",2,"a15:0",0,53.636,4.123,1.110166,0.7494,6.025,27951.62
846,"22.07.2",2,"15:0",0,5.876,14.779,1.121816,0.7494,6.025,3062.19
847,"22.07.2",2,"16:1n9/i16:0",0,5.916,123.196,1.240182,0.7606,6.025,2901.72
848,"22.07.2",2,"16:1w5",0,8.722,22.863,1.130651,0.7554,6.025,4544.98
849,"22.07.2",2,"16:0",0,53.288,175.896,1.297615,0.755,6.025,26134.69
850,"22.07.2",2,"i17:0",0,9.952,-25.107,1.078198,0.76,6.025,4609.69
851,"22.07.2",2,"17:0cy",0,15.598,5.864,1.11207,0.7654,6.025,7225.11
852,"22.07.2",2,"17:0",0,12.335,-7.753,1.09718,0.76,6.025,5713.48
853,"22.07.2",2,"18:3n6",0,1.054,23.969,1.13186,0.7765,6.025,488.21
854,"22.07.2",2,"trans-18:1n9",0,17.245,109.62,1.225376,0.7697,6.025,7567.58
855,"22.07.2",2,"18:0",0,10.482,222.556,1.348412,0.7645,6.025,4599.8
856,"22.07.2",2,"19:0cy",0,55.328,-4.415,1.100831,0.7736,6.025,23065.84
857,"22.07.2",2,"19:0",0,22.764,-26.866,1.076274,0.8216,6.025,9490.23
858,"22.07.2",2,"20:4n6",0,0.799,-4.485,1.100754,0.7919,6.025,317.25
859,"22.07.2",2,"20:5n3",0,2.267,-22.458,1.081097,0.797,6.025,900.07
860,"22.07.3",3,"12:0",0,17.053,-31.085,1.071657,0.7285,6.022,5727.93
861,"22.07.3",3,"14:0",0,2.864,-27.465,1.075618,0.7432,6.022,833.83
862,"22.07.3",3,"a15:0",0,49.456,-29.986,1.07286,0.7494,6.022,13498.48
863,"22.07.3",3,"15:0",0,6.679,-29.38,1.073523,0.7494,6.022,1822.96
864,"22.07.3",3,"16:1n9/i16:0",0,6.974,-26.717,1.076437,0.7606,6.022,1791.54
865,"22.07.3",3,"16:1w5",0,10.9,-28.845,1.074108,0.7554,6.022,2974.8
866,"22.07.3",3,"16:0",0,70.264,-24.195,1.079196,0.755,6.022,18048.29
867,"22.07.3",3,"i17:0",0,10.799,-31.398,1.071315,0.76,6.022,2619.76
868,"22.07.3",3,"17:0cy",0,17.124,-31.473,1.071233,0.7654,6.022,4154.28
869,"22.07.3",3,"17:0",0,13.237,-33.651,1.06885,0.76,6.022,3211.2
870,"22.07.3",3,"18:3n6",0,0.806,-32.117,1.070528,0.7765,6.022,195.53
871,"22.07.3",3,"trans-18:1n9",0,30.086,-26.858,1.076282,0.7697,6.022,6914.71
872,"22.07.3",3,"18:0",0,15.95,-23.53,1.079923,0.7645,6.022,3665.82
873,"22.07.3",3,"19:0cy",0,89.599,-33.974,1.068496,0.7736,6.022,19563.32
874,"22.07.3",3,"19:0",0,19.687,-33.749,1.068743,0.8216,6.022,4298.56
875,"22.07.3",3,"20:4n6",0,1.208,-38.93,1.063073,0.7919,6.022,251.21
876,"22.07.3",3,"20:5n3",0,0.561,-34.586,1.067826,0.797,6.022,116.66
877,"24.02.1",3,"12:0",0,16.355,-31.198,1.071533,0.7285,6.06,6014.73
878,"24.02.1",3,"14:0",0,2.686,43.288,1.152969,0.7432,6.06,856.21
879,"24.02.1",3,"a15:0",0,48.495,14.87,1.121916,0.7494,6.06,14492.08
880,"24.02.1",3,"15:0",0,6.009,7.882,1.114276,0.7494,6.06,1795.71
881,"24.02.1",3,"16:1n9/i16:0",0,5.932,117.928,1.234437,0.7606,6.06,1668.45
882,"24.02.1",3,"16:1w5",0,9.55,25.827,1.133891,0.7554,6.06,2853.66
883,"24.02.1",3,"16:0",0,57.097,148.407,1.267666,0.755,6.06,16057.73
884,"24.02.1",3,"i17:0",0,2.23,-26.945,1.076187,0.76,6.06,592.31
885,"24.02.1",3,"17:0cy",0,16.461,3.805,1.109819,0.7654,6.06,4372.35
886,"24.02.1",3,"17:0",0,12.859,-11.918,1.092625,0.76,6.06,3415.48
887,"24.02.1",3,"18:3n6",0,0.803,86.103,1.199717,0.7765,6.06,213.28
888,"24.02.1",3,"trans-18:1n9",0,17.524,95.585,1.210064,0.7697,6.06,4409.72
889,"24.02.1",3,"18:0",0,13.191,178.054,1.299966,0.7645,6.06,3319.37
890,"24.02.1",3,"19:0cy",0,74.837,-14.477,1.089827,0.7736,6.06,17890.55
891,"24.02.1",3,"19:0",0,19.073,-27.553,1.075522,0.8216,6.06,4559.64
892,"24.02.1",3,"20:4n6",0,0.673,-8.769,1.096069,0.7919,6.06,153.23
893,"24.02.1",3,"20:5n3",0,0.4,-20.691,1.083029,0.797,6.06,91.06
894,"24.02.2",3,"12:0",0,15.138,-30.259,1.072562,0.7285,6.02,5173.82
895,"24.02.2",3,"14:0",0,2.564,3.2,1.109158,0.7432,6.02,759.57
896,"24.02.2",3,"a15:0",0,0.933,-27.526,1.075552,0.7494,6.02,259.12
897,"24.02.2",3,"15:0",0,5.125,-5.837,1.099276,0.7494,6.02,1423.33
898,"24.02.2",3,"16:1n9/i16:0",0,5.627,33.704,1.142498,0.7606,6.02,1470.84
899,"24.02.2",3,"16:1w5",0,8.551,-4.703,1.100516,0.7554,6.02,2374.61
900,"24.02.2",3,"16:0",0,61.324,65.97,1.17774,0.755,6.02,16028
901,"24.02.2",3,"i17:0",0,4.6,-34.182,1.068269,0.76,6.02,1135.48
902,"24.02.2",3,"17:0cy",0,15.898,-15.861,1.088312,0.7654,6.02,3924.45
903,"24.02.2",3,"17:0",0,12.05,-24.298,1.079084,0.76,6.02,2974.48
904,"24.02.2",3,"18:3n6",0,0.976,-4.029,1.101253,0.7765,6.02,240.92
905,"24.02.2",3,"trans-18:1n9",0,20.011,35.708,1.144688,0.7697,6.02,4679.77
906,"24.02.2",3,"18:0",0,14.166,84.86,1.19836,0.7645,6.02,3312.87
907,"24.02.2",3,"19:0cy",0,68.678,-24.253,1.079133,0.7736,6.02,15258.19
908,"24.02.2",3,"19:0",0,17.33,-30.015,1.072828,0.8216,6.02,3850.24
909,"24.02.2",3,"20:4n6",0,1.181,-12.38,1.09212,0.7919,6.02,249.9
910,"24.02.2",3,"20:5n3",0,1.144,-26.588,1.076577,0.797,6.02,242.05
911,"24.02.3",3,"12:0",0,16.424,-30.81,1.071959,0.7285,6.066,6509.88
912,"24.02.3",3,"14:0",0,2.528,-13.643,1.090739,0.7432,6.066,868.52
913,"24.02.3",3,"a15:0",0,39.939,-23.023,1.080478,0.7494,6.066,12863.51
914,"24.02.3",3,"15:0",0,3.553,-17.605,1.086405,0.7494,6.066,1144.35
915,"24.02.3",3,"16:1n9/i16:0",0,5.353,6.948,1.113255,0.7606,6.066,1622.69
916,"24.02.3",3,"16:1w5",0,7.962,-20.223,1.083541,0.7554,6.066,2564.18
917,"24.02.3",3,"16:0",0,53.206,14.356,1.121353,0.755,6.066,16127.25
918,"24.02.3",3,"i17:0",0,10.309,-31.45,1.071258,0.76,6.066,2951.14
919,"24.02.3",3,"17:0cy",0,13.505,-26.508,1.076665,0.7654,6.066,3866.18
920,"24.02.3",3,"17:0",0,10.48,-29.26,1.073654,0.76,6.066,3000.09
921,"24.02.3",3,"18:3n6",0,0.712,-28.323,1.074679,0.7765,6.066,203.83
922,"24.02.3",3,"trans-18:1n9",0,21.603,0.32,1.106009,0.7697,6.066,5858.96
923,"24.02.3",3,"18:0",0,12.964,17.321,1.124595,0.7645,6.066,3515.98
924,"24.02.3",3,"19:0cy",0,68.309,-29.972,1.072875,0.7736,6.066,17600.06
925,"24.02.3",3,"19:0",0,17.552,-33.255,1.069283,0.8216,6.066,4522.38
926,"24.02.3",3,"20:4n6",0,1.274,-40.574,1.061274,0.7919,6.066,312.64
927,"28.01.2",2,"12:0",0,14.165,-30.79,1.07198,0.7285,6.009,4033.13
928,"28.01.2",2,"14:0",0,1.007,16.909,1.124144,0.7432,6.009,248.52
929,"28.01.2",2,"a15:0",0,13.962,-1.432,1.104093,0.7494,6.009,3230.31
930,"28.01.2",2,"15:0",0,1.597,-5.659,1.099471,0.7494,6.009,369.49
931,"28.01.2",2,"16:1n9/i16:0",0,2.141,149.287,1.268625,0.7606,6.009,466.22
932,"28.01.2",2,"16:1w5",0,2.174,11.115,1.117811,0.7554,6.009,502.95
933,"28.01.2",2,"16:0",0,19.242,43.36,1.153047,0.755,6.009,4189.71
934,"28.01.2",2,"17:0",0,5.175,-21.555,1.082084,0.76,6.009,1064.18
935,"28.01.2",2,"18:3n6",0,0.378,-13.673,1.090705,0.7765,6.009,77.74
936,"28.01.2",2,"trans-18:1n9",0,4.523,79.317,1.192311,0.7697,6.009,881.18
937,"28.01.2",2,"18:0",0,4.899,31.951,1.140582,0.7645,6.009,954.43
938,"28.01.2",2,"19:0cy",0,23.773,-31.772,1.070905,0.7736,6.009,4400
939,"28.01.2",2,"19:0",0,14.349,-32.647,1.069949,0.8216,6.009,2655.79
940,"28.01.2",2,"20:4n6",0,0.304,-28.444,1.074547,0.7919,6.009,53.59
941,"28.01.3",2,"12:0",0,23.778,-30.193,1.072633,0.7285,6.015,7909.49
942,"28.01.3",2,"14:0",0,3.155,-17.153,1.0869,0.7432,6.015,909.66
943,"28.01.3",2,"a15:0",0,50.296,-19.895,1.083899,0.7494,6.015,13594.87
944,"28.01.3",2,"15:0",0,5.58,-22.491,1.08106,0.7494,6.015,1508.26
945,"28.01.3",2,"16:1n9/i16:0",0,6.477,40.893,1.150352,0.7606,6.015,1647.75
946,"28.01.3",2,"16:1w5",0,7.826,-23.607,1.07984,0.7554,6.015,2115.17
947,"28.01.3",2,"16:0",0,56.155,-18.55,1.085372,0.755,6.015,14284.57
948,"28.01.3",2,"i17:0",0,9.467,-27.527,1.07555,0.76,6.015,2274.39
949,"28.01.3",2,"17:0cy",0,14.866,-25.452,1.07782,0.7654,6.015,3571.58
950,"28.01.3",2,"17:0",0,11.925,-31.623,1.071069,0.76,6.015,2864.91
951,"28.01.3",2,"18:3n6",0,0.925,-25.696,1.077554,0.7765,6.015,222.22
952,"28.01.3",2,"trans-18:1n9",0,15.512,-11.014,1.093615,0.7697,6.015,3530.63
953,"28.01.3",2,"18:0",0,13.504,-19.551,1.084276,0.7645,6.015,3073.61
954,"28.01.3",2,"19:0cy",0,55.977,-34.193,1.068257,0.7736,6.015,12103.88
955,"28.01.3",2,"19:0",0,22.379,-32.04,1.070613,0.8216,6.015,4839.04
956,"28.01.3",2,"20:4n6",0,1.275,-26.889,1.076249,0.7919,6.015,262.58
957,"28.01.3",2,"20:5n3",0,1.214,-33.379,1.069148,0.797,6.015,249.99
958,"34.06.1",3,"12:0",0,18.828,-30.774,1.071998,0.7285,6,7094.67
959,"34.06.1",3,"14:0",0,5.522,-0.903,1.104671,0.7432,6,1803.56
960,"34.06.1",3,"a15:0",0,73.043,-6.397,1.098664,0.7494,6,22365.31
961,"34.06.1",3,"15:0",0,7.765,-15.387,1.088831,0.7494,6,2377.59
962,"34.06.1",3,"16:1n9/i16:0",0,11.895,81.683,1.194893,0.7606,6,3427.98
963,"34.06.1",3,"16:1w5",0,16.159,-15.073,1.089174,0.7554,6,4947.38
964,"34.06.1",3,"16:0",0,94.143,0.488,1.106192,0.755,6,27128.25
965,"34.06.1",3,"i17:0",0,14.554,-27.702,1.075359,0.76,6,3960.87
966,"34.06.1",3,"17:0cy",0,24.718,-19.205,1.084655,0.7654,6,6727.2
967,"34.06.1",3,"17:0",0,17.266,-28.567,1.074413,0.76,6,4698.93
968,"34.06.1",3,"18:3n6",0,1.388,1.223,1.106996,0.7765,6,377.75
969,"34.06.1",3,"trans-18:1n9",0,29.493,0.388,1.106083,0.7697,6,7604.3
970,"34.06.1",3,"18:0",0,32.64,-6.398,1.098662,0.7645,6,8415.72
971,"34.06.1",3,"19:0",0,152.39,-32.437,1.070178,0.8216,6,37327.61
972,"34.06.1",3,"20:4n6",0,2.941,-23.466,1.079994,0.7919,6,686.11
973,"34.06.1",3,"20:5n3",0,0.51,-24.537,1.078822,0.797,6,118.97
974,"34.06.3",2,"12:0",0,13.612,-30.785,1.071986,0.7285,6.013,3701.06
975,"34.06.3",2,"14:0",0,2.508,2.88,1.108808,0.7432,6.013,591.07
976,"34.06.3",2,"a15:0",0,34.483,-6.188,1.098892,0.7494,6.013,7618.65
977,"34.06.3",2,"15:0",0,3.415,-15.734,1.088452,0.7494,6.013,754.5
978,"34.06.3",2,"16:1n9/i16:0",0,5.798,140.077,1.258586,0.7606,6.013,1205.67
979,"34.06.3",2,"16:1w5",0,7.885,-12.943,1.091505,0.7554,6.013,1741.96
980,"34.06.3",2,"16:0",0,48.352,5.948,1.112162,0.755,6.013,10053.68
981,"34.06.3",2,"i17:0",0,7.916,-29.551,1.073336,0.76,6.013,1554.49
982,"34.06.3",2,"17:0cy",0,12.25,-16.862,1.087218,0.7654,6.013,2405.66
983,"34.06.3",2,"17:0",0,9.748,-24.679,1.078666,0.76,6.013,1914.26
984,"34.06.3",2,"18:3n6",0,0.698,-14.541,1.089757,0.7765,6.013,137.07
985,"34.06.3",2,"trans-18:1n9",0,14.841,-12.219,1.092296,0.7697,6.013,2761.09
986,"34.06.3",2,"18:0",0,13.555,5.027,1.111155,0.7645,6.013,2521.84
987,"34.06.3",2,"19:0cy",0,69.264,-32.294,1.070334,0.7736,6.013,12242.04
988,"34.06.3",2,"19:0",0,14.9,-34.919,1.067462,0.8216,6.013,2633.52
989,"34.06.3",2,"20:4n6",0,0.977,-29.571,1.073314,0.7919,6.013,164.46
990,"37.04.1",2,"12:0",0,13.735,-43.242,1.058353,0.7285,6.008,6953.87
991,"37.04.1",2,"14:0",0,2.721,-8.449,1.096419,0.7432,6.008,1194.08
992,"37.04.1",2,"a15:0",0,31.653,-15.47,1.08874,0.7494,6.008,13022.12
993,"37.04.1",2,"15:0",0,4.043,-21.921,1.081684,0.7494,6.008,1663.3
994,"37.04.1",2,"16:1n9/i16:0",0,3.878,79.633,1.192655,0.7606,6.008,1501.59
995,"37.04.1",2,"16:1w5",0,4.603,-8.443,1.096426,0.7554,6.008,1893.54
996,"37.04.1",2,"16:0",0,32.483,6.638,1.112916,0.755,6.008,12576.51
997,"37.04.1",2,"i17:0",0,5.203,-30.769,1.072003,0.76,6.008,1902.53
998,"37.04.1",2,"17:0cy",0,9.849,-17.909,1.086072,0.7654,6.008,3601.5
999,"37.04.1",2,"17:0",0,8.124,-27.002,1.076125,0.76,6.008,2970.62
1000,"37.04.1",2,"18:3n6",0,0.703,-20.486,1.083254,0.7765,6.008,257.07
1001,"37.04.1",2,"trans-18:1n9",0,9.301,64.424,1.176052,0.7697,6.008,3222.11
1002,"37.04.1",2,"18:0",0,8.852,10.132,1.116736,0.7645,6.008,3066.57
1003,"37.04.1",2,"19:0cy",0,31.431,-33.514,1.069,0.7736,6.008,10344.24
1004,"37.04.1",2,"19:0",0,13.261,-32.686,1.069905,0.8216,6.008,4364.36
1005,"37.04.1",2,"20:4n6",0,1.003,-29.525,1.073364,0.7919,6.008,314.39
1006,"37.04.1",2,"20:5n3",0,1.322,-32.926,1.069643,0.797,6.008,414.35
1007,"37.04.2",2,"12:0",0,22.236,-43.481,1.058092,0.7285,6.007,11681.39
1008,"37.04.2",2,"14:0",0,3.628,-18.251,1.085698,0.7432,6.007,1652.01
1009,"37.04.2",2,"a15:0",0,62.491,-20.469,1.083272,0.7494,6.007,26676.2
1010,"37.04.2",2,"15:0",0,6.488,-24.619,1.078731,0.7494,6.007,2769.6
1011,"37.04.2",2,"16:1n9/i16:0",0,6.467,13.777,1.12072,0.7606,6.007,2598.29
1012,"37.04.2",2,"16:1w5",0,9.115,-19.724,1.084087,0.7554,6.007,3890.71
1013,"37.04.2",2,"16:0",0,68.148,-17.791,1.086202,0.755,6.007,27377.7
1014,"37.04.2",2,"i17:0",0,12.006,-27.534,1.075543,0.76,6.007,4555.28
1015,"37.04.2",2,"17:0cy",0,19.314,-18.729,1.085176,0.7654,6.007,7328.3
1016,"37.04.2",2,"17:0",0,16.106,-30.32,1.072495,0.76,6.007,6110.89
1017,"37.04.2",2,"18:3n6",0,1.186,-17.17,1.086881,0.7765,6.007,450
1018,"37.04.2",2,"trans-18:1n9",0,18.54,-16.781,1.087306,0.7697,6.007,6664.38
1019,"37.04.2",2,"18:0",0,13.891,-13.387,1.091018,0.7645,6.007,4993.26
1020,"37.04.2",2,"19:0cy",0,67.101,-33.654,1.068846,0.7736,6.007,22914.44
1021,"37.04.2",2,"19:0",0,22.886,-32.322,1.070304,0.8216,6.007,7815.45
1022,"37.04.2",2,"20:4n6",0,1.342,-33.379,1.069148,0.7919,6.007,436.48
1023,"37.04.2",2,"20:5n3",0,1.384,-34.489,1.067932,0.797,6.007,450.1
1024,"37.04.3",3,"12:0",0,17.125,-30.68,1.072101,0.7285,5.99,6558.66
1025,"37.04.3",3,"14:0",0,2.673,-11.962,1.092577,0.7432,5.99,887.34
1026,"37.04.3",3,"a15:0",0,32.85,-14.116,1.090221,0.7494,5.99,10223.24
1027,"37.04.3",3,"15:0",0,3.645,-18.464,1.085465,0.7494,5.99,1134.36
1028,"37.04.3",3,"16:1n9/i16:0",0,5.246,38.604,1.147852,0.7606,5.99,1536.6
1029,"37.04.3",3,"16:1w5",0,6.564,-19.504,1.084328,0.7554,5.99,2042.61
1030,"37.04.3",3,"16:0",0,49.102,-12.058,1.092472,0.755,5.99,14381.02
1031,"37.04.3",3,"i17:0",0,8.638,-30.583,1.072206,0.76,5.99,2389.34
1032,"37.04.3",3,"17:0cy",0,11.78,-24.243,1.079143,0.7654,5.99,3258.54
1033,"37.04.3",3,"17:0",0,10.18,-30.773,1.071999,0.76,5.99,2815.86
1034,"37.04.3",3,"18:3n6",0,0.674,-21.463,1.082184,0.7765,5.99,186.44
1035,"37.04.3",3,"trans-18:1n9",0,16.024,-16.886,1.087191,0.7697,5.99,4199.21
1036,"37.04.3",3,"18:0",0,11.758,0.135,1.105806,0.7645,5.99,3081.28
1037,"37.04.3",3,"19:0cy",0,56.947,-31.68,1.071006,0.7736,5.99,14177.43
1038,"37.04.3",3,"19:0",0,17.827,-33.986,1.068483,0.8216,5.99,4438.22
1039,"37.04.3",3,"20:4n6",0,0.993,-38.27,1.063795,0.7919,5.99,235.45
1040,"43.02.1",3,"12:0",0,16.381,-30.553,1.07224,0.7285,6.003,5970.33
1041,"43.02.1",3,"14:0",0,0.333,-20.821,1.082887,0.7432,6.003,105.2
1042,"43.02.1",3,"a15:0",0,20.698,-14.183,1.090148,0.7494,6.003,6129.91
1043,"43.02.1",3,"15:0",0,2.167,-18.1,1.085863,0.7494,6.003,641.78
1044,"43.02.1",3,"16:1n9/i16:0",0,3.358,54.281,1.164975,0.7606,6.003,936.02
1045,"43.02.1",3,"16:1w5",0,3.608,-12.661,1.091813,0.7554,6.003,1068.46
1046,"43.02.1",3,"16:0",0,26.277,-2.534,1.102887,0.755,6.003,7323.85
1047,"43.02.1",3,"i17:0",0,0.531,-34.187,1.068263,0.76,6.003,139.77
1048,"43.02.1",3,"17:0cy",0,7.672,-19.975,1.083812,0.7654,6.003,2019.57
1049,"43.02.1",3,"17:0",0,6.477,-28.287,1.074718,0.76,6.003,1704.95
1050,"43.02.1",3,"18:3n6",0,0.428,-19.108,1.084761,0.7765,6.003,112.66
1051,"43.02.1",3,"18:2n9,12 and cis-18:1n9 and 183n3",0,7.375,-13.706,1.09067,0.775,6.003,1839.14
1052,"43.02.1",3,"18:0",0,6.827,-4.566,1.100665,0.7645,6.003,1702.55
1053,"43.02.1",3,"19:0cy",0,24.97,-31.671,1.071016,0.7736,6.003,5915.87
1054,"43.02.1",3,"19:0",0,17.405,-30.734,1.072042,0.8216,6.003,4123.61
1055,"43.02.1",3,"20:4n6",0,0.433,-31.019,1.07173,0.7919,6.003,97.7
1056,"43.02.2",2,"12:0",0,15.765,-31.029,1.071719,0.7285,6.017,6818.83
1057,"43.02.2",2,"14:0",0,3.028,-15.426,1.088789,0.7432,6.017,1135.21
1058,"43.02.2",2,"a15:0",0,31.184,-14.737,1.089542,0.7494,6.017,10960.15
1059,"43.02.2",2,"15:0",0,2.77,-20.192,1.083575,0.7494,6.017,973.56
1060,"43.02.2",2,"16:1n9/i16:0",0,4.47,34.857,1.143758,0.7606,6.017,1478.66
1061,"43.02.2",2,"16:1w5",0,6.115,-19.217,1.084642,0.7554,6.017,2149.04
1062,"43.02.2",2,"16:0",0,46.248,3.983,1.110013,0.755,6.017,15297.31
1063,"43.02.2",2,"i17:0",0,5.75,-29.59,1.073293,0.76,6.017,1796.23
1064,"43.02.2",2,"17:0cy",0,10.69,-12.436,1.092059,0.7654,6.017,3339.54
1065,"43.02.2",2,"17:0",0,8.193,-30.309,1.072507,0.76,6.017,2559.4
1066,"43.02.2",2,"18:3n6",0,0.504,16.765,1.123987,0.7765,6.017,157.44
1067,"43.02.2",2,"trans-18:1n9",0,11.91,21.36,1.129009,0.7697,6.017,3524.84
1068,"43.02.2",2,"18:0",0,9.569,-4.497,1.100741,0.7645,6.017,2832.02
1069,"43.02.2",2,"19:0cy",0,35.01,-33.216,1.069325,0.7736,6.017,9843.51
1070,"43.02.2",2,"19:0",0,15.52,-34.08,1.06838,0.8216,6.017,4363.68
1071,"43.02.2",2,"20:4n6",0,0.748,-9.638,1.095119,0.7919,6.017,200.31
1072,"43.02.3",2,"12:0",0,23.491,-30.017,1.072826,0.7285,6,6280.71
1073,"43.02.3",2,"14:0",0,2.588,-26.627,1.076535,0.7432,6,599.77
1074,"43.02.3",2,"a15:0",0,37.683,-28.149,1.07487,0.7494,6,8186.94
1075,"43.02.3",2,"15:0",0,5.01,-28.309,1.074695,0.7494,6,1088.45
1076,"43.02.3",2,"16:1n9/i16:0",0,5.567,-22.387,1.081173,0.7606,6,1138.34
1077,"43.02.3",2,"16:1w5",0,8.133,-25.921,1.077308,0.7554,6,1766.82
1078,"43.02.3",2,"16:0",0,53.905,-28.335,1.074667,0.755,6,11021.53
1079,"43.02.3",2,"i17:0",0,3.305,-30.222,1.072602,0.76,6,638.21
1080,"43.02.3",2,"17:0cy",0,12.814,-28.911,1.074036,0.7654,6,2474.49
1081,"43.02.3",2,"17:0",0,10.403,-31.708,1.070976,0.76,6,2008.85
1082,"43.02.3",2,"18:3n6",0,0.811,-28.87,1.074082,0.7765,6,156.61
1083,"43.02.3",2,"trans-18:1n9",0,17.354,-28.274,1.074734,0.7697,6,3174.81
1084,"43.02.3",2,"18:0",0,12.288,-31.324,1.071396,0.7645,6,2248.02
1085,"43.02.3",2,"19:0cy",0,64.964,-32.807,1.069773,0.7736,6,11290.74
1086,"43.02.3",2,"19:0",0,23.077,-32.806,1.069774,0.8216,6,4010.81
1087,"43.02.3",2,"20:4n6",0,0.812,-40.135,1.061754,0.7919,6,134.41
1088,"43.02.3",2,"20:5n3",0,0.368,-33.895,1.068582,0.797,6,60.91
1089,"46.03.2",3,"12:0",0,15.689,-30.206,1.072619,0.7285,6.006,1187.39
1090,"46.03.2",3,"14:0",0,0.653,-15.731,1.088455,0.7432,6.006,42.84
1091,"46.03.2",3,"a15:0",0,40.575,8.925,1.115417,0.7494,6.006,2495.32
1092,"46.03.2",3,"15:0",0,4.64,22.225,1.129954,0.7494,6.006,285.35
1093,"46.03.2",3,"16:1n9/i16:0",0,4.341,183.316,1.305697,0.7606,6.006,251.26
1094,"46.03.2",3,"16:1w5",0,5.715,47.321,1.157374,0.7554,6.006,351.44
1095,"46.03.2",3,"16:0",0,41.391,198.61,1.32235,0.755,6.006,2395.58
1096,"46.03.2",3,"i17:0",0,6.39,-28.739,1.074224,0.76,6.006,349.28
1097,"46.03.2",3,"17:0cy",0,11.677,13.486,1.120402,0.7654,6.006,638.3
1098,"46.03.2",3,"17:0",0,9.093,-4.249,1.101013,0.76,6.006,497.04
1099,"46.03.2",3,"18:3n6",0,0.834,34.165,1.143002,0.7765,6.006,45.59
1100,"46.03.2",3,"trans-18:1n9",0,13.16,167.731,1.288721,0.7697,6.006,681.51
1101,"46.03.2",3,"18:0",0,10.587,264.65,1.394192,0.7645,6.006,548.25
1102,"46.03.2",3,"19:0cy",0,51.421,-3.333,1.102014,0.7736,6.006,2529.78
1103,"46.03.2",3,"19:0",0,16.527,-26.643,1.076518,0.8216,6.006,813.09
1104,"46.03.2",3,"20:4n6",0,1.474,30.038,1.138492,0.7919,6.006,69.06
1105,"46.03.2",3,"20:5n3",0,1.592,-6.643,1.098394,0.797,6.006,74.59
1106,"46.03.3",3,"12:0",0,16.264,-31.205,1.071526,0.7285,6.003,4712.2
1107,"46.03.3",3,"14:0",0,2.7,2.33,1.108206,0.7432,6.003,678.06
1108,"46.03.3",3,"a15:0",0,40.212,-7.226,1.097757,0.7494,6.003,9467.19
1109,"46.03.3",3,"15:0",0,5.307,-9.038,1.095775,0.7494,6.003,1249.44
1110,"46.03.3",3,"16:1n9/i16:0",0,6.608,53.026,1.163605,0.7606,6.003,1464.25
1111,"46.03.3",3,"16:1w5",0,7.856,-5.729,1.099394,0.7554,6.003,1849.4
1112,"46.03.3",3,"16:0",0,52.741,60.202,1.171441,0.755,6.003,11685.6
1113,"46.03.3",3,"i17:0",0,1.895,-28.851,1.074102,0.76,6.003,396.54
1114,"46.03.3",3,"17:0cy",0,14.911,-13.822,1.090542,0.7654,6.003,3120.3
1115,"46.03.3",3,"17:0",0,12.609,-19.895,1.083899,0.76,6.003,2638.5
1116,"46.03.3",3,"18:3n6",0,0.77,0.851,1.106589,0.7765,6.003,161.13
1117,"46.03.3",3,"18:2n9,12 and cis-18:1n9 and 183n3",0,17.373,27.88,1.136134,0.775,6.003,3444.03
1118,"46.03.3",3,"trans-18:1n9",0,15.129,67.854,1.179797,0.7697,6.003,2999.3
1119,"46.03.3",3,"18:0",0,2.48,3.92,1.109944,0.7645,6.003,491.66
1120,"46.03.3",3,"19:0cy",0,62.487,-21.165,1.082511,0.7736,6.003,11768.71
1121,"46.03.3",3,"19:0",0,18.624,-30.44,1.072363,0.8216,6.003,3507.65
1122,"46.03.3",3,"20:4n6",0,0.837,-16.363,1.087763,0.7919,6.003,150.14
1123,"46.03.3",3,"20:5n3",0,1.165,-28.543,1.074439,0.797,6.003,208.96
1124,"48.01.1",2,"12:0",0,13.373,-30.751,1.072023,0.7285,6.072,6045.48
1125,"48.01.1",2,"14:0",0,2.164,-11.303,1.093298,0.7432,6.072,847.93
1126,"48.01.1",2,"a15:0",0,23.026,-12.915,1.091535,0.7494,6.072,8458.43
1127,"48.01.1",2,"15:0",0,2.543,-19.936,1.083855,0.7494,6.072,934.16
1128,"48.01.1",2,"16:1n9/i16:0",0,4.229,34.065,1.142892,0.7606,6.072,1462.13
1129,"48.01.1",2,"16:1w5",0,5.086,-16.794,1.087292,0.7554,6.072,1868.16
1130,"48.01.1",2,"16:0",0,38.317,-9.768,1.094977,0.755,6.072,13246.46
1131,"48.01.1",2,"i17:0",0,4.833,-28.5,1.074486,0.76,6.072,1577.96
1132,"48.01.1",2,"17:0cy",0,8.13,-18.835,1.08506,0.7654,6.072,2654.52
1133,"48.01.1",2,"17:0",0,6.753,-27.595,1.075476,0.76,6.072,2204.84
1134,"48.01.1",2,"18:3n6",0,0.731,-14.545,1.089752,0.7765,6.072,238.68
1135,"48.01.1",2,"trans-18:1n9",0,12.276,-20.016,1.083768,0.7697,6.072,3797.27
1136,"48.01.1",2,"18:0",0,9.293,-0.511,1.1051,0.7645,6.072,2874.56
1137,"48.01.1",2,"19:0cy",0,39.024,-29.295,1.073616,0.7736,6.072,11467.71
1138,"48.01.1",2,"19:0",0,13.078,-33.528,1.068984,0.8216,6.072,3843.17
1139,"48.01.1",2,"20:4n6",0,0.629,-37.427,1.064718,0.7919,6.072,176.04
1140,"48.01.1",2,"20:5n3",0,2.688,-34.837,1.067552,0.797,6.072,752.26
1141,"48.01.3",2,"12:0",0,22.727,-29.68,1.073195,0.7285,6.032,6199.5
1142,"48.01.3",2,"14:0",0,4.647,-19.945,1.083845,0.7432,6.032,1098.74
1143,"48.01.3",2,"a15:0",0,64.204,-21.279,1.082386,0.7494,6.032,14231.32
1144,"48.01.3",2,"15:0",0,7.354,-23.707,1.079729,0.7494,6.032,1630.08
1145,"48.01.3",2,"16:1n9/i16:0",0,7.922,30.06,1.138517,0.7606,6.032,1652.7
1146,"48.01.3",2,"16:1w5",0,10.9,-21.344,1.082315,0.7554,6.032,2415.88
1147,"48.01.3",2,"16:0",0,71.754,-12.767,1.091696,0.755,6.032,14968.1
1148,"48.01.3",2,"17:0cy",0,16.667,-22.389,1.081171,0.7654,6.032,3283.72
1149,"48.01.3",2,"17:0",0,12.276,-28.66,1.074311,0.76,6.032,2418.52
1150,"48.01.3",2,"18:3n6",0,1.01,-27.082,1.076038,0.7765,6.032,198.98
1151,"48.01.3",2,"trans-18:1n9",0,23.343,-13.915,1.090441,0.7697,6.032,4356.96
1152,"48.01.3",2,"18:0",0,17.294,-8.01,1.0969,0.7645,6.032,3227.93
1153,"48.01.3",2,"19:0cy",0,72.254,-33.353,1.069176,0.7736,6.032,12812.06
1154,"48.01.3",2,"19:0",0,20.847,-32.267,1.070364,0.8216,6.032,3696.61
1155,"48.01.3",2,"20:4n6",0,1.702,-20.693,1.083027,0.7919,6.032,287.44
1156,"48.01.3",2,"20:5n3",0,2.615,-27.828,1.075221,0.797,6.032,441.6
1157,"52.04.1",2,"12:0",0,15.317,-30.726,1.07205,0.7285,6,7154.59
1158,"52.04.1",2,"14:0",0,1.567,-5.138,1.10004,0.7432,6,634.43
1159,"52.04.1",2,"a15:0",0,24.677,-12.199,1.092318,0.7494,6,9366.4
1160,"52.04.1",2,"15:0",0,2.776,-16.679,1.087418,0.7494,6,1053.66
1161,"52.04.1",2,"16:1n9/i16:0",0,3.14,89.508,1.203433,0.7606,6,1121.73
1162,"52.04.1",2,"16:1w5",0,4.568,-14.149,1.090185,0.7554,6,1733.68
1163,"52.04.1",2,"16:0",0,29.994,-1.423,1.104103,0.755,6,10714
1164,"52.04.1",2,"i17:0",0,2.286,-32.572,1.070031,0.76,6,771.2
1165,"52.04.1",2,"17:0cy",0,8.985,-16.852,1.087228,0.7654,6,3031.25
1166,"52.04.1",2,"17:0",0,7.513,-27.83,1.075219,0.76,6,2534.58
1167,"52.04.1",2,"18:3n6",0,0.594,-23.762,1.07967,0.7765,6,200.39
1168,"52.04.1",2,"trans-18:1n9",0,7.697,-20.091,1.083686,0.7697,6,2460.06
1169,"52.04.1",2,"18:0",0,7.102,2.443,1.10833,0.7645,6,2269.89
1170,"52.04.1",2,"19:0cy",0,38.337,-32.15,1.070492,0.7736,6,11640.51
1171,"52.04.1",2,"19:0",0,16.143,-32.864,1.069711,0.8216,6,4901.65
1172,"52.04.2",2,"12:0",0,14.219,-31.311,1.07141,0.7285,6.007,7580.59
1173,"52.04.2",2,"14:0",0,1.588,-13.51,1.090884,0.7432,6.007,733.82
1174,"52.04.2",2,"a15:0",0,21.771,-18.062,1.085905,0.7494,6.007,9431.5
1175,"52.04.2",2,"15:0",0,3.03,-20.847,1.082859,0.7494,6.007,1312.63
1176,"52.04.2",2,"16:1n9/i16:0",0,1.973,133.997,1.251959,0.7606,6.007,804.47
1177,"52.04.2",2,"16:1w5",0,2.464,-6.459,1.098595,0.7554,6.007,1067.35
1178,"52.04.2",2,"16:0",0,19.054,19.599,1.127084,0.755,6.007,7768.29
1179,"52.04.2",2,"i17:0",0,5.006,-31.277,1.071447,0.76,6.007,1927.54
1180,"52.04.2",2,"17:0cy",0,6.002,-12.268,1.092243,0.7654,6.007,2311.12
1181,"52.04.2",2,"17:0",0,5.274,-24.949,1.078371,0.76,6.007,2030.73
1182,"52.04.2",2,"18:3n6",0,0.508,-25.334,1.077949,0.7765,6.007,195.6
1183,"52.04.2",2,"trans-18:1n9",0,5.197,-19.769,1.084037,0.7697,6.007,1895.82
1184,"52.04.2",2,"18:0",0,4.394,12.967,1.119835,0.7645,6.007,1602.91
1185,"52.04.2",2,"19:0cy",0,18.007,-32.751,1.069834,0.7736,6.007,6240.46
1186,"52.04.2",2,"19:0",0,13.834,-32.223,1.070412,0.8216,6.007,4794.32
1187,"52.04.2",2,"20:5n3",0,1.497,-32.997,1.069565,0.797,6.007,494.08
1188,"52.04.3",1,"12:0",0,12.355,-30.77,1.072002,0.7285,6.054,6930.82
1189,"52.04.3",1,"14:0",0,0.845,25.791,1.133851,0.7432,6.054,410.87
1190,"52.04.3",1,"a15:0",0,10.6,23.996,1.13189,0.7494,6.054,4831.87
1191,"52.04.3",1,"15:0",0,1.376,8.953,1.115447,0.7494,6.054,627.24
1192,"52.04.3",1,"16:1n9/i16:0",0,1.786,411.855,1.553954,0.7606,6.054,766.26
1193,"52.04.3",1,"16:1w5",0,1.905,25.16,1.133162,0.7554,6.054,868.3
1194,"52.04.3",1,"16:0",0,16.661,73.434,1.185889,0.755,6.054,7147.41
1195,"52.04.3",1,"i17:0",0,0.364,-41.099,1.060699,0.76,6.054,147.49
1196,"52.04.3",1,"17:0cy",0,4.409,4.471,1.110548,0.7654,6.054,1786.39
1197,"52.04.3",1,"17:0",0,1.303,442.922,1.587605,0.76,6.054,527.91
1198,"52.04.3",1,"18:3n6",0,0.339,21.567,1.129235,0.7765,6.054,137.36
1199,"52.04.3",1,"trans-18:1n9",0,6.182,11.195,1.117898,0.7697,6.054,2372.93
1200,"52.04.3",1,"18:0",0,4.183,288.586,1.420205,0.7645,6.054,1605.62
1201,"52.04.3",1,"19:0cy",0,13.561,-28.906,1.074041,0.7736,6.054,4945.11
1202,"52.04.3",1,"19:0",0,11.931,-31.422,1.071288,0.8216,6.054,4350.75
1203,"52.04.3",1,"20:4n6",0,1.479,-23.429,1.080034,0.7919,6.054,513.67
1204,"52.04.3",1,"20:5n3",0,0.441,-28.237,1.074773,0.797,6.054,153.16
1205,"55.11.1",2,"12:0",0,15.525,-30.794,1.071975,0.7285,6.012,6098.53
1206,"55.11.1",2,"14:0",0,1.551,15.202,1.122278,0.7432,6.012,528.1
1207,"55.11.1",2,"a15:0",0,25.172,-6.832,1.098188,0.7494,6.012,8034.89
1208,"55.11.1",2,"15:0",0,2.589,-10.299,1.094396,0.7494,6.012,826.4
1209,"55.11.1",2,"16:1n9/i16:0",0,3.676,97.322,1.211959,0.7606,6.012,1104.37
1210,"55.11.1",2,"16:1w5",0,5.314,-10.417,1.094267,0.7554,6.012,1696.09
1211,"55.11.1",2,"16:0",0,33.021,17.184,1.124445,0.755,6.012,9919.5
1212,"55.11.1",2,"i17:0",0,5.575,-28.233,1.074778,0.76,6.012,1581.68
1213,"55.11.1",2,"17:0cy",0,8.971,-16.221,1.087919,0.7654,6.012,2545.24
1214,"55.11.1",2,"17:0",0,7.45,-21.873,1.081737,0.76,6.012,2113.62
1215,"55.11.1",2,"18:3n6",0,0.566,-6.647,1.09839,0.7765,6.012,160.58
1216,"55.11.1",2,"trans-18:1n9",0,11.84,-6.292,1.098778,0.7697,6.012,3182.42
1217,"55.11.1",2,"18:0",0,7.715,25.944,1.134019,0.7645,6.012,2073.68
1218,"55.11.1",2,"19:0cy",0,35.404,-32.314,1.070312,0.7736,6.012,9040.41
1219,"55.11.1",2,"19:0",0,15.532,-32.782,1.069801,0.8216,6.012,3966.13
1220,"55.11.1",2,"20:4n6",0,0.275,-36.994,1.065191,0.7919,6.012,66.88
1221,"55.11.1",2,"20:5n3",0,0.382,-22.413,1.081145,0.797,6.012,92.9
1222,"55.11.2",2,"12:0",0,26.657,-30.448,1.072355,0.7285,6,11737.52
1223,"55.11.2",2,"14:0",0,3.138,-3.161,1.102202,0.7432,6,1197.64
1224,"55.11.2",2,"a15:0",0,50.435,-3.35,1.101995,0.7494,6,18045.37
1225,"55.11.2",2,"15:0",0,5.83,-13.179,1.091246,0.7494,6,2085.94
1226,"55.11.2",2,"16:1n9/i16:0",0,7.637,70.347,1.182518,0.7606,6,2571.79
1227,"55.11.2",2,"16:1w5",0,10.947,-16.956,1.087115,0.7554,6,3916.46
1228,"55.11.2",2,"16:0",0,65.621,-8.777,1.096061,0.755,6,22096.01
1229,"55.11.2",2,"i17:0",0,3.28,-27.813,1.075237,0.76,6,1043.08
1230,"55.11.2",2,"17:0cy",0,17.758,-17.578,1.086435,0.7654,6,5647.45
1231,"55.11.2",2,"17:0",0,13.887,-28.413,1.074581,0.76,6,4416.25
1232,"55.11.2",2,"18:3n6",0,1.043,-18.071,1.085895,0.7765,6,331.69
1233,"55.11.2",2,"trans-18:1n9",0,22.858,-14.966,1.089292,0.7697,6,6886.77
1234,"55.11.2",2,"18:0",0,15.874,4.075,1.110114,0.7645,6,4782.6
1235,"55.11.2",2,"19:0cy",0,77.63,-32.033,1.07062,0.7736,6,22219.63
1236,"55.11.2",2,"19:0",0,26.038,-32.649,1.069946,0.8216,6,7452.78
1237,"55.11.2",2,"20:4n6",0,0.628,-33.25,1.069288,0.7919,6,171.2
1238,"55.11.2",2,"20:5n3",0,0.396,-32.403,1.070215,0.797,6,107.94
1239,"58.05.1",4,"12:0",0,17.027,-31.293,1.07143,0.7285,6.03,1986.27
1240,"58.05.1",4,"14:0",0,3.3,-26.815,1.076329,0.7432,6.03,333.68
1241,"58.05.1",4,"a15:0",0,4.016,15.313,1.122399,0.7494,6.03,380.68
1242,"58.05.1",4,"15:0",0,4.01,-25.167,1.078132,0.7494,6.03,380.11
1243,"58.05.1",4,"16:1n9/i16:0",0,9.105,42.92,1.152567,0.7606,6.03,812.32
1244,"58.05.1",4,"16:1w5",0,14.299,-0.237,1.105399,0.7554,6.03,1355.31
1245,"58.05.1",4,"16:0",0,90.064,110.384,1.226209,0.755,6.03,8034.45
1246,"58.05.1",4,"i17:0",0,11.07,-26.268,1.076928,0.76,6.03,932.67
1247,"58.05.1",4,"17:0cy",0,11.05,4.247,1.110302,0.7654,6.03,931.01
1248,"58.05.1",4,"17:0",0,15.412,-10.661,1.094,0.76,6.03,1298.48
1249,"58.05.1",4,"18:3n6",0,1.14,24.694,1.132652,0.7765,6.03,96.05
1250,"58.05.1",4,"trans-18:1n9",0,34.67,62.569,1.174026,0.7697,6.03,2767.36
1251,"58.05.1",4,"18:0",0,21.082,83.308,1.196666,0.7645,6.03,1682.76
1252,"58.05.1",4,"19:0cy",0,106.872,-16.473,1.087643,0.7736,6.03,8104.11
1253,"58.05.1",4,"19:0",0,21.118,-28.396,1.074599,0.8216,6.03,1601.39
1254,"58.05.1",4,"20:4n6",0,1.887,-28.757,1.074205,0.7919,6.03,136.28
1255,"58.05.1",4,"20:5n3",0,0.581,-30.051,1.072789,0.797,6.03,41.96
1256,"58.05.2",3,"12:0",0,15.687,-30.489,1.072309,0.7285,6.064,2631.06
1257,"58.05.2",3,"14:0",0,2.191,26.225,1.134325,0.7432,6.064,318.52
1258,"58.05.2",3,"a15:0",0,40.886,-3.452,1.101884,0.7494,6.064,5572.29
1259,"58.05.2",3,"15:0",0,4.53,9.435,1.115974,0.7494,6.064,617.39
1260,"58.05.2",3,"16:1n9/i16:0",0,5.692,73.777,1.186263,0.7606,6.064,730.13
1261,"58.05.2",3,"16:1w5",0,8.016,19.25,1.126702,0.7554,6.064,1092.4
1262,"58.05.2",3,"16:0",0,53.366,163.267,1.283859,0.755,6.064,6844.8
1263,"58.05.2",3,"i17:0",0,4.644,-33.938,1.068536,0.76,6.064,562.55
1264,"58.05.2",3,"17:0cy",0,13.989,-5.646,1.099484,0.7654,6.064,1694.61
1265,"58.05.2",3,"17:0",0,10.674,-14.25,1.090074,0.76,6.064,1293
1266,"58.05.2",3,"18:3n6",0,0.972,13.502,1.12042,0.7765,6.064,117.74
1267,"58.05.2",3,"trans-18:1n9",0,18.162,97.179,1.211804,0.7697,6.064,2084.33
1268,"58.05.2",3,"18:0",0,13.008,147.924,1.267139,0.7645,6.064,1492.84
1269,"58.05.2",3,"19:0cy",0,60.666,-15.053,1.089196,0.7736,6.064,6614.21
1270,"58.05.2",3,"19:0",0,18.057,-27.339,1.075756,0.8216,6.064,1968.71
1271,"58.05.2",3,"20:4n6",0,1.242,-27.903,1.075139,0.7919,6.064,128.96
1272,"58.05.2",3,"20:5n3",0,1.54,-31.544,1.071155,0.797,6.064,159.9
1273,"58.05.3",3,"12:0",0,15.705,-31.365,1.071351,0.7285,6.03,4147.46
1274,"58.05.3",3,"14:0",0,3.856,21.716,1.129398,0.7432,6.03,882.65
1275,"58.05.3",3,"a15:0",0,57.757,-0.778,1.104808,0.7494,6.03,12394.14
1276,"58.05.3",3,"15:0",0,7.883,9.081,1.115587,0.7494,6.03,1691.62
1277,"58.05.3",3,"16:1n9/i16:0",0,10.253,61.27,1.172608,0.7606,6.03,2070.81
1278,"58.05.3",3,"16:1w5",0,13.248,4.614,1.110703,0.7554,6.03,2842.67
1279,"58.05.3",3,"16:0",0,92.042,121.123,1.237921,0.755,6.03,18588.12
1280,"58.05.3",3,"i17:0",0,12.073,-28.445,1.074546,0.76,6.03,2302.7
1281,"58.05.3",3,"17:0cy",0,20.651,-11.488,1.093096,0.7654,6.03,3938.93
1282,"58.05.3",3,"17:0",0,15.707,-13.847,1.090515,0.76,6.03,2995.83
1283,"58.05.3",3,"18:3n6",0,1.07,12.519,1.119346,0.7765,6.03,204.08
1284,"58.05.3",3,"trans-18:1n9",0,38.595,68.976,1.181022,0.7697,6.03,6974.08
1285,"58.05.3",3,"18:0",0,25.502,102.955,1.218105,0.7645,6.03,4608.2
1286,"58.05.3",3,"19:0cy",0,99.935,-22.899,1.080614,0.7736,6.03,17155.5
1287,"58.05.3",3,"19:0",0,19.342,-32.19,1.070449,0.8216,6.03,3320.4
1288,"58.05.3",3,"20:4n6",0,1.828,-37.299,1.064857,0.7919,6.03,298.88
1289,"58.05.3",3,"20:5n3",0,0.908,-34.613,1.067797,0.797,6.03,148.45
1290,"63.04.2",3,"12:0",0,18.899,-30.844,1.071921,0.7285,6,5886.89
1291,"63.04.2",3,"14:0",0,2.342,26.625,1.134763,0.7432,6,632.33
1292,"63.04.2",3,"a15:0",0,46.802,-4.347,1.100906,0.7494,6,11846.23
1293,"63.04.2",3,"15:0",0,4.29,6.125,1.112355,0.7494,6,1085.86
1294,"63.04.2",3,"16:1n9/i16:0",0,4.792,80.403,1.193496,0.7606,6,1141.59
1295,"63.04.2",3,"16:1w5",0,8.853,4.587,1.110674,0.7554,6,2240.63
1296,"63.04.2",3,"16:0",0,55.849,99.685,1.214537,0.755,6,13303.57
1297,"63.04.2",3,"i17:0",0,15.654,-29.24,1.073677,0.76,6,3521.7
1298,"63.04.2",3,"17:0cy",0,18.365,-5.876,1.099233,0.7654,6,4131.72
1299,"63.04.2",3,"17:0",0,13.832,-14.694,1.089589,0.76,6,3111.8
1300,"63.04.2",3,"18:3n6",0,1.15,9.032,1.115534,0.7765,6,258.72
1301,"63.04.2",3,"trans-18:1n9",0,15.939,127.376,1.24474,0.7697,6,3397.2
1302,"63.04.2",3,"18:0",0,10.915,160.381,1.280714,0.7645,6,2326.4
1303,"63.04.2",3,"19:0cy",0,68.711,-18.621,1.085293,0.7736,6,13912.83
1304,"63.04.2",3,"19:0",0,20.916,-28.095,1.074929,0.8216,6,4235.18
1305,"63.04.2",3,"20:5n3",0,0.305,-15.192,1.089044,0.797,6,58.81
