"","ID","SampleName","InjectionVol_ul","FAME_compound","Sample_Dilution","Peak_Area","d13","Atom_per_13C","FAME_per_C"
"1",1,"01.05.1","3","12:00",0,17.873,-31.002,1.071749,"NA"
"2",2,"01.05.1","3","14:00",0,1.598,107.832,1.223426,"NA"
"3",3,"01.05.1","3","a15:0",0,27.59,37.836,1.147012,"0.7494"
"4",4,"01.05.1","3","15:00",0,2.95,72.745,1.185137,"NA"
"5",5,"01.05.1","3","16:1n9/i16:0",0,4.342,313.808,1.447601,"0.7606"
"6",6,"01.05.1","3","16:00",0,39.344,361.223,1.499061,"NA"
"7",7,"01.05.1","3","i17:0",0,5.433,-37.937,1.06416,"0.76"
"8",8,"01.05.1","3","17:0cy",0,10.32,31.745,1.140358,"0.7654"
"9",9,"01.05.1","3","17:00",0,8.088,16.366,1.12355,"NA"
"10",10,"01.05.1","3","18:2n9,12 and cis-18:1n9 and 183n3",0,11.158,271.615,1.401763,"NA"
"11",11,"01.05.1","3","18:00",0,10.743,375.38,1.514415,"NA"
"12",12,"01.05.1","3","19:0cy",0,49.436,1.653,1.107466,"0.7736"
"13",13,"01.05.1","3","19:00",0,18.796,-28.984,1.073956,"NA"
"14",14,"01.05.1","3","20:4n6",0,0.419,1.567,1.107372,"0.7919"
"15",15,"01.05.1","3","20:5n3",0,0.303,-4.498,1.10074,"0.797"
"16",16,"01.13.1","2.5","12:00",0,15.53,-31.013,1.071736,"NA"
"17",17,"01.13.1","2.5","14:00",0,1.067,5.755,1.11195,"NA"
"18",18,"01.13.1","2.5","a15:0",0,15.64,-8.881,1.095946,"0.7494"
"19",19,"01.13.1","2.5","15:00",0,1.627,-13.301,1.091112,"NA"
"20",20,"01.13.1","2.5","16:1n9/i16:0",0,2.254,223.851,1.34982,"0.7606"
"21",21,"01.13.1","2.5","16:00",0,21.383,12.774,1.119624,"NA"
"22",22,"01.13.1","2.5","i17:0",0,4.124,-29.396,1.073506,"0.76"
"23",23,"01.13.1","2.5","17:0cy",0,5.833,-16.705,1.087389,"0.7654"
"24",24,"01.13.1","2.5","17:00",0,5.332,-27.233,1.075872,"NA"
"25",25,"01.13.1","2.5","trans-18:1n9",0,6.115,-21.929,1.081675,"0.7697"
"26",26,"01.13.1","2.5","18:00",0,5.504,0.174,1.105848,"NA"
"27",27,"01.13.1","2.5","19:0cy",0,24.437,-33.436,1.069085,"0.7736"
"28",28,"01.13.1","2.5","19:00",0,14.658,-32.145,1.070498,"NA"
"29",29,"01.13.1","2.5","20:4n6",0,0.363,-26.851,1.07629,"0.7919"
"30",30,"01.13.2","2.5","12:00",0,22.532,-50.775,1.050108,"NA"
"31",31,"01.13.2","2.5","14:00",0,2.888,17.481,1.124769,"NA"
"32",32,"01.13.2","2.5","a15:0",0,49.538,7.656,1.114029,"0.7494"
"33",33,"01.13.2","2.5","15:00",0,5.305,-9.002,1.095814,"NA"
"34",34,"01.13.2","2.5","16:1n9/i16:0",0,2.445,957.27,2.141408,"0.7606"
"35",35,"01.13.2","2.5","16:00",0,31.755,103.591,1.218798,"NA"
"36",36,"01.13.2","2.5","i17:0",0,11.204,-24.938,1.078383,"0.76"
"37",37,"01.13.2","2.5","17:0cy",0,10.547,50.189,1.160506,"0.7654"
"38",38,"01.13.2","2.5","17:00",0,9.311,-15.932,1.088235,"NA"
"39",39,"01.13.2","2.5","trans-18:1n9",0,7.987,0.292,1.105978,"0.7697"
"40",40,"01.13.2","2.5","18:00",0,7.323,73.693,1.186171,"NA"
"41",41,"01.13.2","2.5","19:0cy",0,32.807,-30.438,1.072366,"0.7736"
"42",42,"01.13.2","2.5","19:00",0,21.825,-30.585,1.072205,"NA"
"43",43,"01.13.2","2.5","20:4n6",0,1.252,-22.933,1.080576,"0.7919"
"44",44,"01.13.2","2.5","20:5n3",0,3.083,-27.948,1.07509,"0.797"
"45",45,"01.13.3","2.5","12:00",0,14.982,-31.141,1.071596,"NA"
"46",46,"01.13.3","2.5","14:00",0,2.528,-18.416,1.085518,"NA"
"47",47,"01.13.3","2.5","a15:0",0,37.532,-20.079,1.083699,"0.7494"
"48",48,"01.13.3","2.5","15:00",0,4.031,-20.629,1.083097,"NA"
"49",49,"01.13.3","2.5","16:1n9/i16:0",0,2.821,88.656,1.202503,"0.7606"
"50",50,"01.13.3","2.5","16:00",0,29.174,-6.97,1.098036,"NA"
"51",51,"01.13.3","2.5","i17:0",0,7.677,-32.55,1.070054,"0.76"
"52",52,"01.13.3","2.5","17:0cy",0,8.058,-21.404,1.082249,"0.7654"
"53",53,"01.13.3","2.5","17:00",0,6.401,-27.395,1.075694,"NA"
"54",54,"01.13.3","2.5","trans-18:1n9",0,8.874,-20.238,1.083525,"0.7697"
"55",55,"01.13.3","2.5","18:00",0,8.124,-8.908,1.095917,"NA"
"56",56,"01.13.3","2.5","19:0cy",0,29.943,-34.337,1.068099,"0.7736"
"57",57,"01.13.3","2.5","19:00",0,14.084,-33.126,1.069424,"NA"
"58",58,"01.13.3","2.5","20:4n6",0,0.996,-36.97,1.065218,"0.7919"
"59",59,"01.13.3","2.5","20:5n3",0,1.886,-35.259,1.06709,"0.797"
"60",60,"01.05.3","3","12:00",0,15.032,-39.489,1.062461,"NA"
"61",61,"01.05.3","3","14:00",0,2.444,13.485,1.120401,"NA"
"62",62,"01.05.3","3","a15:0",0,33.172,-9.676,1.095077,"0.7494"
"63",63,"01.05.3","3","15:00",0,3.847,3.815,1.10983,"NA"
"64",64,"01.05.3","3","16:1n9/i16:0",0,4.681,73.656,1.186131,"0.7606"
"65",65,"01.05.3","3","16:00",0,38.88,84.488,1.197955,"NA"
"66",66,"01.05.3","3","i17:0",0,4.478,-32.868,1.069706,"0.76"
"67",67,"01.05.3","3","17:0cy",0,9.659,-7.906,1.097013,"0.7654"
"68",68,"01.05.3","3","17:00",0,7.109,-12.531,1.091955,"NA"
"69",69,"01.05.3","3","trans-18:1n9",0,10.936,49.735,1.16001,"0.7697"
"70",70,"01.05.3","3","18:00",0,9.96,86.393,1.200033,"NA"
"71",71,"01.05.3","3","19:0cy",0,35.779,-20.159,1.083611,"0.7736"
"72",72,"01.05.3","3","19:00",0,16.412,-30.499,1.072298,"NA"
"73",73,"01.05.3","3","20:4n6",0,1.217,3.182,1.109138,"0.7919"
"74",74,"01.05.3","3","20:5n3",0,1.141,-23.857,1.079566,"0.797"
"75",75,"10.02.2","3","12:00",0,17.417,-31.144,1.071593,"NA"
"76",76,"10.02.2","3","14:00",0,3.389,-8.634,1.096217,"NA"
"77",77,"10.02.2","3","a15:0",0,60.472,-16.173,1.087971,"0.7494"
"78",78,"10.02.2","3","15:00",0,5.917,-19.583,1.084241,"NA"
"79",79,"10.02.2","3","16:1n9/i16:0",0,6.209,71.051,1.183287,"0.7606"
"80",80,"10.02.2","3","16:00",0,64.274,-8.548,1.096311,"NA"
"81",81,"10.02.2","3","i17:0",0,10.02,-29.621,1.073259,"0.76"
"82",82,"10.02.2","3","17:0cy",0,17.845,-22.842,1.080676,"0.7654"
"83",83,"10.02.2","3","17:00",0,13.991,-30.522,1.072274,"NA"
"84",84,"10.02.2","3","trans-18:1n9",0,16.936,-6.842,1.098177,"0.7697"
"85",85,"10.02.2","3","18:00",0,15.803,-13.712,1.090663,"NA"
"86",86,"10.02.2","3","19:00",0,17.906,-33.295,1.06924,"NA"
"87",87,"10.02.2","3","20:4n6",0,0.982,-30.363,1.072447,"0.7919"
"88",88,"10.02.2","3","20:5n3",0,1.717,-33.594,1.068912,"0.797"
"89",89,"10.02.1","3","12:00",0,16.051,-30.602,1.072186,"NA"
"90",90,"10.02.1","3","14:00",0,2.908,29.92,1.138364,"NA"
"91",91,"10.02.1","3","a15:0",0,43.695,11.577,1.118315,"0.7494"
"92",92,"10.02.1","3","15:00",0,3.998,0.366,1.106058,"NA"
"93",93,"10.02.1","3","16:1n9/i16:0",0,6.89,179.72,1.301781,"0.7606"
"94",94,"10.02.1","3","16:00",0,60.748,10.308,1.116929,"NA"
"95",95,"10.02.1","3","i17:0",0,8.066,-30.042,1.072799,"0.76"
"96",96,"10.02.1","3","17:0cy",0,14.137,-13.707,1.090669,"0.7654"
"97",97,"10.02.1","3","17:00",0,10.321,-24.843,1.078487,"NA"
"98",98,"10.02.1","3","trans-18:1n9",0,18.546,-9.619,1.09514,"0.7697"
"99",99,"10.02.1","3","18:00",0,17.234,11.741,1.118495,"NA"
"100",100,"10.02.1","3","19:0cy",0,63.4,-33.16,1.069387,"0.7736"
"101",101,"10.02.1","3","19:00",0,16.933,-34.419,1.068009,"NA"
"102",102,"10.02.1","3","20:4n6",0,0.784,-23.61,1.079836,"0.7919"
"103",103,"10.02.3","2","12:00",0,13.172,-30.958,1.071797,"NA"
"104",104,"10.02.3","2","14:00",0,1.426,-2.527,1.102895,"NA"
"105",105,"10.02.3","2","a15:0",0,24.547,-11.16,1.093454,"0.7494"
"106",106,"10.02.3","2","15:00",0,2.446,-13.931,1.090423,"NA"
"107",107,"10.02.3","2","16:1n9/i16:0",0,3.741,80.814,1.193945,"0.7606"
"108",108,"10.02.3","2","16:00",0,34.991,-8.94,1.095883,"NA"
"109",109,"10.02.3","2","i17:0",0,0.391,-34.175,1.068276,"0.76"
"110",110,"10.02.3","2","17:0cy",0,8.818,-24.591,1.078763,"0.7654"
"111",111,"10.02.3","2","17:00",0,7.271,-26.312,1.076879,"NA"
"112",112,"10.02.3","2","trans-18:1n9",0,11.776,-16.319,1.087812,"0.7697"
"113",113,"10.02.3","2","18:00",0,9.549,-5.604,1.099531,"NA"
"114",114,"10.02.3","2","19:0cy",0,35.159,-34.012,1.068455,"0.7736"
"115",115,"10.02.3","2","19:00",0,13.445,-33.419,1.069104,"NA"
"116",116,"10.02.3","2","20:4n6",0,0.453,-24.693,1.078651,"0.7919"
"117",117,"11.06.2","3","12:00",0,15.588,-31.606,1.071088,"NA"
"118",118,"11.06.2","3","14:00",0,1.905,3.592,1.109586,"NA"
"119",119,"11.06.2","3","a15:0",0,28.027,1.777,1.107601,"0.7494"
"120",120,"11.06.2","3","15:00",0,2.26,3.545,1.109534,"NA"
"121",121,"11.06.2","3","16:1n9/i16:0",0,3.852,113.782,1.229915,"0.7606"
"122",122,"11.06.2","3","16:00",0,32.518,2.419,1.108304,"NA"
"123",123,"11.06.2","3","i17:0",0,2.008,-13.443,1.090958,"0.76"
"124",124,"11.06.2","3","17:0cy",0,10.153,-6.25,1.098824,"0.7654"
"125",125,"11.06.2","3","17:00",0,7.814,-16.495,1.087619,"NA"
"126",126,"11.06.2","3","trans-18:1n9",0,8.512,12.918,1.119782,"0.7697"
"127",127,"11.06.2","3","18:00",0,7.41,26.387,1.134503,"NA"
"128",128,"11.06.2","3","19:0cy",0,38.44,-32.837,1.069741,"0.7736"
"129",129,"11.06.2","3","19:00",0,15.921,-33.195,1.069349,"NA"
"130",130,"11.06.2","3","20:4n6",0,0.651,-6.599,1.098443,"0.7919"
"131",131,"11.06.2","3","20:5n3",0,0.408,-26.087,1.077126,"0.797"
"132",132,"11.10.1","2.5","12:00",0,13.502,-30.343,1.072469,"NA"
"133",133,"11.10.1","2.5","14:00",0,1.709,0.839,1.106576,"NA"
"134",134,"11.10.1","2.5","a15:0",0,38.955,-17.251,1.086792,"0.7494"
"135",135,"11.10.1","2.5","15:00",0,3.82,-9.598,1.095163,"NA"
"136",136,"11.10.1","2.5","16:1n9/i16:0",0,4.454,37.219,1.146338,"0.7606"
"137",137,"11.10.1","2.5","16:00",0,43.355,56.616,1.167526,"NA"
"138",138,"11.10.1","2.5","i17:0",0,7.022,-28.132,1.074889,"0.76"
"139",139,"11.10.1","2.5","17:0cy",0,12.06,-14.826,1.089445,"0.7654"
"140",140,"11.10.1","2.5","17:00",0,9.166,-20.171,1.083598,"NA"
"141",141,"11.10.1","2.5","trans-18:1n9",0,13.029,70.904,1.183126,"0.7697"
"142",142,"11.10.1","2.5","18:00",0,8.72,75.561,1.18821,"NA"
"143",143,"11.10.1","2.5","19:0cy",0,43.986,-23.512,1.079943,"0.7736"
"144",144,"11.10.1","2.5","19:00",0,14.435,-29.674,1.073202,"NA"
"145",145,"11.10.1","2.5","20:4n6",0,0.86,-24.357,1.079019,"0.7919"
"146",146,"11.10.1","2.5","20:5n3",0,1.024,-29.803,1.07306,"0.797"
"147",147,"11.10.3","2.5","12:00",0,14.193,-30.625,1.072161,"NA"
"148",148,"11.10.3","2.5","14:00",0,3.342,-7.183,1.097804,"NA"
"149",149,"11.10.3","2.5","a15:0",0,56.994,-17.058,1.087003,"0.7494"
"150",150,"11.10.3","2.5","15:00",0,6.753,-15.168,1.089071,"NA"
"151",151,"11.10.3","2.5","16:1n9/i16:0",0,8.452,11.33,1.118045,"0.7606"
"152",152,"11.10.3","2.5","16:00",0,77.291,12.923,1.119787,"NA"
"153",153,"11.10.3","2.5","i17:0",0,11.218,-30.664,1.072118,"0.76"
"154",154,"11.10.3","2.5","17:0cy",0,17.01,-22.578,1.080965,"0.7654"
"155",155,"11.10.3","2.5","17:00",0,12.139,-26.38,1.076806,"NA"
"156",156,"11.10.3","2.5","trans-18:1n9",0,35.516,-6.403,1.098657,"0.7697"
"157",157,"11.10.3","2.5","18:00",0,19.332,19.093,1.126531,"NA"
"158",158,"11.10.3","2.5","19:0cy",0,90.724,-28.01,1.075022,"0.7736"
"159",159,"11.10.3","2.5","19:00",0,17.192,-33.058,1.069499,"NA"
"160",160,"11.10.3","2.5","20:4n6",0,1.544,-36.196,1.066065,"0.7919"
"161",161,"11.10.3","2.5","20:5n3",0,1.612,-34.246,1.068199,"0.797"
"162",162,"11.06.2","3","12:00",0,16.694,-30.335,1.072478,"NA"
"163",163,"11.06.2","3","14:00",0,1.09,-19.856,1.083942,"NA"
"164",164,"11.06.2","3","a15:0",0,23.591,-23.042,1.080457,"0.7494"
"165",165,"11.06.2","3","15:00",0,2.751,-19.177,1.084685,"NA"
"166",166,"11.06.2","3","16:1n9/i16:0",0,2.709,26.317,1.134426,"0.7606"
"167",167,"11.06.2","3","16:00",0,27.062,-18.47,1.085458,"NA"
"168",168,"11.06.2","3","i17:0",0,4.539,-35.054,1.067314,"0.76"
"169",169,"11.06.2","3","17:0cy",0,7.42,-23.665,1.079775,"0.7654"
"170",170,"11.06.2","3","17:00",0,5.271,-29.292,1.073619,"NA"
"171",171,"11.06.2","3","trans-18:1n9",0,6.318,-1.533,1.103982,"0.7697"
"172",172,"11.06.2","3","18:00",0,5.562,-6.814,1.098207,"NA"
"173",173,"11.06.2","3","19:0cy",0,29.297,-35.379,1.066959,"0.7736"
"174",174,"11.06.2","3","19:00",0,15.07,-32.722,1.069866,"NA"
"175",175,"11.06.2","3","20:4n6",0,0.745,-17.332,1.086703,"0.7919"
"176",176,"11.06.2","3","20:5n3",0,1.112,-32.765,1.069819,"0.797"
"177",177,"11.06.3","2","12:00",0,13.145,-30.895,1.071865,"NA"
"178",178,"11.06.3","2","14:00",0,1.643,-20.603,1.083125,"NA"
"179",179,"11.06.3","2","a15:0",0,22.963,-23.396,1.08007,"0.7494"
"180",180,"11.06.3","2","15:00",0,2.421,-22.892,1.080621,"NA"
"181",181,"11.06.3","2","16:1n9/i16:0",0,4.272,-0.072,1.10558,"0.7606"
"182",182,"11.06.3","2","16:00",0,35.114,-23.801,1.079627,"NA"
"183",183,"11.06.3","2","i17:0",0,5.689,-30.488,1.072311,"0.76"
"184",184,"11.06.3","2","17:0cy",0,8.588,-27.086,1.076033,"0.7654"
"185",185,"11.06.3","2","17:00",0,6.671,-31.132,1.071606,"NA"
"186",186,"11.06.3","2","trans-18:1n9",0,11.047,-23.434,1.080028,"0.7697"
"187",187,"11.06.3","2","18:00",0,9.173,-24.297,1.079085,"NA"
"188",188,"11.06.3","2","19:0cy",0,40.222,-34.346,1.068089,"0.7736"
"189",189,"11.06.3","2","19:00",0,13.124,-33.926,1.068548,"NA"
"190",190,"11.06.3","2","20:4n6",0,0.457,-40.391,1.061474,"0.7919"
"191",191,"11.06.3","2","20:5n3",0,0.615,-35.411,1.066924,"0.797"
"192",192,"11.06.3","2.5","12:00",0,24.909,-29.832,1.073029,"NA"
"193",193,"11.06.3","2.5","14:00",0,2.934,-26.883,1.076256,"NA"
"194",194,"11.06.3","2.5","a15:0",0,40.757,-28.534,1.074449,"0.7494"
"195",195,"11.06.3","2.5","15:00",0,4.651,-28.36,1.074639,"NA"
"196",196,"11.06.3","2.5","16:1n9/i16:0",0,5.976,-23.118,1.080374,"0.7606"
"197",197,"11.06.3","2.5","16:00",0,55.572,-28.237,1.074774,"NA"
"198",198,"11.06.3","2.5","i17:0",0,3.28,-31.059,1.071686,"0.76"
"199",199,"11.06.3","2.5","17:0cy",0,13.521,-29.477,1.073417,"0.7654"
"200",200,"11.06.3","2.5","17:00",0,10.36,-31.786,1.070891,"NA"
"201",201,"11.06.3","2.5","trans-18:1n9",0,18.754,-27.879,1.075166,"0.7697"
"202",202,"11.06.3","2.5","18:00",0,12.79,-30.738,1.072038,"NA"
"203",203,"11.06.3","2.5","19:0cy",0,69.032,-32.364,1.070258,"0.7736"
"204",204,"11.06.3","2.5","19:00",0,23.9,-31.897,1.070769,"NA"
"205",205,"11.06.3","2.5","20:4n6",0,0.59,-38.458,1.063589,"0.7919"
"206",206,"11.06.3","2.5","20:5n3",0,0.391,-31.531,1.07117,"0.797"
"207",207,"12.09.1","2.5","12:00",0,14.344,-30.397,1.07241,"NA"
"208",208,"12.09.1","2.5","14:00",0,1.657,29.624,1.138039,"NA"
"209",209,"12.09.1","2.5","a15:0",0,30.816,-0.909,1.104664,"0.7494"
"210",210,"12.09.1","2.5","15:00",0,3.197,13.128,1.120012,"NA"
"211",211,"12.09.1","2.5","16:1n9/i16:0",0,3.971,107.947,1.223551,"0.7606"
"212",212,"12.09.1","2.5","16:00",0,38.201,161.788,1.282247,"NA"
"213",213,"12.09.1","2.5","i17:0",0,1.929,-36.035,1.066241,"0.76"
"214",214,"12.09.1","2.5","17:0cy",0,11.455,-1.329,1.104205,"0.7654"
"215",215,"12.09.1","2.5","17:00",0,8.82,-12.857,1.091599,"NA"
"216",216,"12.09.1","2.5","trans-18:1n9",0,12.762,90.944,1.205,"0.7697"
"217",217,"12.09.1","2.5","18:00",0,8.077,196.787,1.320365,"NA"
"218",218,"12.09.1","2.5","19:0cy",0,45.096,-15.551,1.088652,"0.7736"
"219",219,"12.09.1","2.5","19:00",0,14.572,-32.249,1.070383,"NA"
"220",220,"12.09.1","2.5","20:4n6",0,0.329,-33.964,1.068507,"0.7919"
"221",221,"12.09.2","2.5","12:00",0,13.461,-30.251,1.07257,"NA"
"222",222,"12.09.2","2.5","14:00",0,1.269,46.054,1.15599,"NA"
"223",223,"12.09.2","2.5","a15:0",0,24.643,12.105,1.118893,"0.7494"
"224",224,"12.09.2","2.5","15:00",0,2.667,29.62,1.138036,"NA"
"225",225,"12.09.2","2.5","16:1n9/i16:0",0,2.928,158.685,1.278866,"0.7606"
"226",226,"12.09.2","2.5","16:00",0,25.569,251.095,1.379454,"NA"
"227",227,"12.09.2","2.5","i17:0",0,3.733,-31.2,1.071532,"0.76"
"228",228,"12.09.2","2.5","17:0cy",0,7.34,14.695,1.121724,"0.7654"
"229",229,"12.09.2","2.5","17:00",0,5.517,2.45,1.108337,"NA"
"230",230,"12.09.2","2.5","trans-18:1n9",0,7.498,159.85,1.280136,"0.7697"
"231",231,"12.09.2","2.5","18:00",0,5.454,314.855,1.448737,"NA"
"232",232,"12.09.2","2.5","19:0cy",0,27.9,7.153,1.113479,"0.7736"
"233",233,"12.09.2","2.5","19:00",0,13.434,-26.74,1.076411,"NA"
"234",234,"12.09.2","2.5","20:5n3",0,0.933,-18.584,1.085334,"0.797"
"235",235,"12.01.2","3","12:00",0,15.302,-30.638,1.072147,"NA"
"236",236,"12.01.2","3","14:00",0,2.741,-14.014,1.090333,"NA"
"237",237,"12.01.2","3","a15:0",0,48.597,-22.486,1.081066,"0.7494"
"238",238,"12.01.2","3","15:00",0,4.74,-16.435,1.087685,"NA"
"239",239,"12.01.2","3","16:1n9/i16:0",0,4.304,39.419,1.148741,"0.7606"
"240",240,"12.01.2","3","16:00",0,37.641,48.647,1.158823,"NA"
"241",241,"12.01.2","3","i17:0",0,9.132,-30.965,1.071788,"0.76"
"242",242,"12.01.2","3","17:0cy",0,12.058,-20.382,1.083367,"0.7654"
"243",243,"12.01.2","3","17:00",0,8.9,-25.239,1.078054,"NA"
"244",244,"12.01.2","3","trans-18:1n9",0,11.851,28.499,1.13681,"0.7697"
"245",245,"12.01.2","3","18:00",0,8.499,66.287,1.178086,"NA"
"246",246,"12.01.2","3","19:0cy",0,43.443,-24.802,1.078532,"0.7736"
"247",247,"12.01.2","3","19:00",0,15.959,-31.251,1.071476,"NA"
"248",248,"12.01.2","3","20:4n6",0,1.117,-20.241,1.083522,"0.7919"
"249",249,"12.01.2","3","20:5n3",0,2.632,-29.655,1.073222,"0.797"
"250",250,"12.01.3","2.5","12:00",0,14.104,-30.967,1.071786,"NA"
"251",251,"12.01.3","2.5","14:00",0,1.372,-10.497,1.094179,"NA"
"252",252,"12.01.3","2.5","a15:0",0,27.336,-22.185,1.081394,"0.7494"
"253",253,"12.01.3","2.5","15:00",0,3.096,-11.788,1.092768,"NA"
"254",254,"12.01.3","2.5","16:1n9/i16:0",0,3.725,6.103,1.112332,"0.7606"
"255",255,"12.01.3","2.5","16:00",0,32.428,46.986,1.157008,"NA"
"256",256,"12.01.3","2.5","i17:0",0,3.838,-34.079,1.068381,"0.76"
"257",257,"12.01.3","2.5","17:0cy",0,7.943,-25.255,1.078036,"0.7654"
"258",258,"12.01.3","2.5","17:00",0,5.945,-25.063,1.078246,"NA"
"259",259,"12.01.3","2.5","trans-18:1n9",0,11.433,15.89,1.12303,"0.7697"
"260",260,"12.01.3","2.5","18:00",0,7.676,54.468,1.16518,"NA"
"261",261,"12.01.3","2.5","19:0cy",0,31.285,-28.578,1.0744,"0.7736"
"262",262,"12.01.3","2.5","19:00",0,13.546,-31.688,1.070997,"NA"
"263",263,"12.01.3","2.5","20:4n6",0,0.554,-37.611,1.064516,"0.7919"
"264",264,"12.01.3","2.5","20:5n3",0,0.855,-33.568,1.06894,"0.797"
"265",265,"12.05.2","3","12:00",0,15.94,-30.573,1.072217,"NA"
"266",266,"12.05.2","3","14:00",0,1.189,54.166,1.16485,"NA"
"267",267,"12.05.2","3","a15:0",0,15.971,30.037,1.138491,"0.7494"
"268",268,"12.05.2","3","15:00",0,1.31,50.495,1.16084,"NA"
"269",269,"12.05.2","3","16:1n9/i16:0",0,0.215,31.062,1.139611,"0.7606"
"270",270,"12.05.2","3","16:00",0,17.082,352.975,1.490113,"NA"
"271",271,"12.05.2","3","i17:0",0,1.778,-40.914,1.060902,"0.76"
"272",272,"12.05.2","3","17:0cy",0,5.454,14.448,1.121454,"0.7654"
"273",273,"12.05.2","3","17:00",0,4.679,13.109,1.11999,"NA"
"274",274,"12.05.2","3","18:2n9,12 and cis-18:1n9 and 183n3",0,4.688,266.594,1.396305,"NA"
"275",275,"12.05.2","3","18:00",0,3.484,548.84,1.702158,"NA"
"276",276,"12.05.2","3","19:0cy",0,15.827,18.456,1.125835,"0.7736"
"277",277,"12.05.2","3","19:00",0,16.01,-29.087,1.073844,"NA"
"278",278,"12.05.2","3","20:5n3",0,3.453,-32.887,1.069686,"0.797"
"279",279,"12.05.3","2.5","12:00",0,12.291,-42.653,1.058998,"NA"
"280",280,"12.05.3","2.5","14:00",0,0.866,-13.505,1.09089,"NA"
"281",281,"12.05.3","2.5","a15:0",0,14.038,-22.808,1.080713,"0.7494"
"282",282,"12.05.3","2.5","15:00",0,1.857,-13.41,1.090994,"NA"
"283",283,"12.05.3","2.5","16:1n9/i16:0",0,1.378,34.863,1.143764,"0.7606"
"284",284,"12.05.3","2.5","16:00",0,12.621,65.216,1.176916,"NA"
"285",285,"12.05.3","2.5","i17:0",0,3.614,-31.863,1.070806,"0.76"
"286",286,"12.05.3","2.5","17:0cy",0,3.17,-19.826,1.083975,"0.7654"
"287",287,"12.05.3","2.5","17:00",0,2.559,-21.264,1.082403,"NA"
"288",288,"12.05.3","2.5","trans-18:1n9",0,3.914,43.595,1.153304,"0.7697"
"289",289,"12.05.3","2.5","18:00",0,2.899,68.389,1.180381,"NA"
"290",290,"12.05.3","2.5","19:0cy",0,8.691,-21.476,1.08217,"0.7736"
"291",291,"12.05.3","2.5","19:00",0,11.059,-31.359,1.071357,"NA"
"292",292,"12.05.3","2.5","20:5n3",0,0.877,-30.015,1.072829,"0.797"
"293",293,"12.09.3","2.5","12:00",0,15.216,-30.719,1.072057,"NA"
"294",294,"12.09.3","2.5","14:00",0,3.07,-10.279,1.094418,"NA"
"295",295,"12.09.3","2.5","a15:0",0,48.74,-18.29,1.085655,"0.7494"
"296",296,"12.09.3","2.5","15:00",0,5.944,-16.025,1.088133,"NA"
"297",297,"12.09.3","2.5","16:1n9/i16:0",0,7.565,-0.765,1.104823,"0.7606"
"298",298,"12.09.3","2.5","16:00",0,61.866,16.338,1.12352,"NA"
"299",299,"12.09.3","2.5","i17:0",0,9.974,-30.773,1.071999,"0.76"
"300",300,"12.09.3","2.5","17:0cy",0,14.987,-23.872,1.079549,"0.7654"
"301",301,"12.09.3","2.5","17:00",0,11.133,-26.842,1.0763,"NA"
"302",302,"12.09.3","2.5","trans-18:1n9",0,20.521,8.969,1.115465,"0.7697"
"303",303,"12.09.3","2.5","18:00",0,15.044,24.953,1.132935,"NA"
"304",304,"12.09.3","2.5","19:0cy",0,64.241,-26.662,1.076497,"0.7736"
"305",305,"12.09.3","2.5","19:00",0,16.735,-31.572,1.071124,"NA"
"306",306,"12.09.3","2.5","20:4n6",0,1.12,-34.021,1.068445,"0.7919"
"307",307,"12.09.3","2.5","20:5n3",0,2.614,-33.628,1.068875,"0.797"
"308",308,"14.10.3","3","12:00",0,16.072,-30.77,1.072002,"NA"
"309",309,"14.10.3","3","14:00",0,1.461,-25.826,1.077411,"NA"
"310",310,"14.10.3","3","a15:0",0,22.802,-28.025,1.075005,"0.7494"
"311",311,"14.10.3","3","15:00",0,2.369,-29.528,1.073361,"NA"
"312",312,"14.10.3","3","16:1n9/i16:0",0,4,-20.593,1.083137,"0.7606"
"313",313,"14.10.3","3","16:00",0,35.763,-27.818,1.075232,"NA"
"314",314,"14.10.3","3","i17:0",0,0.456,-33.242,1.069298,"0.76"
"315",315,"14.10.3","3","17:0cy",0,8.387,-31.064,1.07168,"0.7654"
"316",316,"14.10.3","3","17:00",0,6.607,-33.258,1.06928,"NA"
"317",317,"14.10.3","3","trans-18:1n9",0,11.278,-26.687,1.076469,"0.7697"
"318",318,"14.10.3","3","18:00",0,9.767,-30.411,1.072395,"NA"
"319",319,"14.10.3","3","19:0cy",0,38.256,-34.764,1.067632,"0.7736"
"320",320,"14.10.3","3","19:00",0,15.696,-33.349,1.06918,"NA"
"321",321,"14.10.3","3","20:4n6",0,0.516,-40.845,1.060977,"0.7919"
"322",322,"14.10.1","3","12:00",0,16.241,-30.666,1.072116,"NA"
"323",323,"14.10.1","3","14:00",0,1.537,68.983,1.181029,"NA"
"324",324,"14.10.1","3","a15:0",0,24.195,8.594,1.115055,"0.7494"
"325",325,"14.10.1","3","15:00",0,2.442,7.845,1.114235,"NA"
"326",326,"14.10.1","3","16:1n9/i16:0",0,3.383,419.758,1.562515,"0.7606"
"327",327,"14.10.1","3","16:00",0,34.712,61.311,1.172653,"NA"
"328",328,"14.10.1","3","i17:0",0,7.351,-25.813,1.077426,"0.76"
"329",329,"14.10.1","3","17:0cy",0,9.49,-5.27,1.099896,"0.7654"
"330",330,"14.10.1","3","17:00",0,7.67,-23.554,1.079897,"NA"
"331",331,"14.10.1","3","trans-18:1n9",0,10.65,9.473,1.116016,"0.7697"
"332",332,"14.10.1","3","18:00",0,7.989,59.587,1.17077,"NA"
"333",333,"14.10.1","3","19:0cy",0,40.361,-31.36,1.071357,"0.7736"
"334",334,"14.10.1","3","19:00",0,17.3,-32.108,1.070538,"NA"
"335",335,"14.10.1","3","20:4n6",0,1.016,-24.12,1.079278,"0.7919"
"336",336,"14.10.2","3","12:00",0,16.84,-30.854,1.071911,"NA"
"337",337,"14.10.2","3","14:00",0,0.407,2.982,1.108919,"NA"
"338",338,"14.10.2","3","a15:0",0,25.014,16.752,1.123972,"0.7494"
"339",339,"14.10.2","3","15:00",0,2.657,13.581,1.120507,"NA"
"340",340,"14.10.2","3","16:1n9/i16:0",0,4.499,328.285,1.463318,"0.7606"
"341",341,"14.10.2","3","16:00",0,35.449,94.229,1.208585,"NA"
"342",342,"14.10.2","3","i17:0",0,0.623,-37.246,1.064916,"0.76"
"343",343,"14.10.2","3","17:0cy",0,8.711,-6.231,1.098844,"0.7654"
"344",344,"14.10.2","3","17:00",0,6.824,-21.544,1.082096,"NA"
"345",345,"14.10.2","3","18:2n9,12 and cis-18:1n9 and 183n3",0,9.459,80.945,1.194087,"NA"
"346",346,"14.10.2","3","18:00",0,10.001,68.893,1.180931,"NA"
"347",347,"14.10.2","3","19:0cy",0,33.97,-30.026,1.072816,"0.7736"
"348",348,"14.10.2","3","19:00",0,17.304,-32.858,1.069717,"NA"
"349",349,"14.10.2","3","20:4n6",0,0.55,-26.782,1.076366,"0.7919"
"350",350,"15.16.2","2.5","12:00",0,14.291,-41.284,1.060497,"NA"
"351",351,"15.16.2","2.5","14:00",0,2.07,-9.916,1.094815,"NA"
"352",352,"15.16.2","2.5","a15:0",0,40.035,-21.179,1.082495,"0.7494"
"353",353,"15.16.2","2.5","15:00",0,4.385,-11.921,1.092622,"NA"
"354",354,"15.16.2","2.5","16:1n9/i16:0",0,5.002,10.89,1.117564,"0.7606"
"355",355,"15.16.2","2.5","16:00",0,7.682,-14.377,1.089936,"NA"
"356",356,"15.16.2","2.5","i17:0",0,7.017,-30.028,1.072814,"0.76"
"357",357,"15.16.2","2.5","17:0cy",0,12.014,-19.794,1.084011,"0.7654"
"358",358,"15.16.2","2.5","17:00",0,9.07,-24.237,1.07915,"NA"
"359",359,"15.16.2","2.5","trans-18:1n9",0,14.126,17.892,1.125218,"0.7697"
"360",360,"15.16.2","2.5","18:00",0,11.935,34.328,1.14318,"NA"
"361",361,"15.16.2","2.5","19:0cy",0,41.668,-28.231,1.07478,"0.7736"
"362",362,"15.16.2","2.5","19:00",0,15.135,-32.18,1.070459,"NA"
"363",363,"15.16.2","2.5","20:4n6",0,0.714,-35.267,1.067082,"0.7919"
"364",364,"15.16.2","2.5","20:5n3",0,1.775,-32.532,1.070075,"0.797"
"365",365,"17.01.1","3","12:00",0,16.314,-44.238,1.057263,"NA"
"366",366,"17.01.1","3","14:00",0,1.747,-3.721,1.101589,"NA"
"367",367,"17.01.1","3","a15:0",0,35.591,-11.742,1.092818,"0.7494"
"368",368,"17.01.1","3","15:00",0,4.053,-14.224,1.090103,"NA"
"369",369,"17.01.1","3","16:1n9/i16:0",0,4.251,83.389,1.196755,"0.7606"
"370",370,"17.01.1","3","16:00",0,44.191,-10.5,1.094177,"NA"
"371",371,"17.01.1","3","i17:0",0,8.043,-27.63,1.075438,"0.76"
"372",372,"17.01.1","3","17:0cy",0,12.676,-20.436,1.083308,"0.7654"
"373",373,"17.01.1","3","17:00",0,9.356,-29.893,1.072961,"NA"
"374",374,"17.01.1","3","trans-18:1n9",0,12.35,-13.869,1.090491,"0.7697"
"375",375,"17.01.1","3","18:00",0,9.852,-10.716,1.09394,"NA"
"376",376,"17.01.1","3","19:0cy",0,52.633,-35.242,1.067109,"0.7736"
"377",377,"17.01.1","3","19:00",0,18.002,-34.019,1.068447,"NA"
"378",378,"17.01.1","3","20:4n6",0,0.82,-33.525,1.068988,"0.7919"
"379",379,"17.01.1","3","20:5n3",0,1.204,-32.853,1.069723,"0.797"
"380",380,"17.01.3","3","12:00",0,16.989,-39.093,1.062895,"NA"
"381",381,"17.01.3","3","14:00",0,2.004,-20.464,1.083277,"NA"
"382",382,"17.01.3","3","a15:0",0,44.317,-24.867,1.078461,"0.7494"
"383",383,"17.01.3","3","15:00",0,4.644,-25.892,1.077339,"NA"
"384",384,"17.01.3","3","16:1n9/i16:0",0,4.713,8.915,1.115405,"0.7606"
"385",385,"17.01.3","3","16:00",0,54.132,-22.158,1.081424,"NA"
"386",386,"17.01.3","3","17:0cy",0,15.697,-27.262,1.07584,"0.7654"
"387",387,"17.01.3","3","17:00",0,12.211,-32.76,1.069825,"NA"
"388",388,"17.01.3","3","trans-18:1n9",0,16.564,-27.501,1.075579,"0.7697"
"389",389,"17.01.3","3","18:00",0,11.981,-22.03,1.081564,"NA"
"390",390,"17.01.3","3","19:0cy",0,73.052,-34.335,1.068102,"0.7736"
"391",391,"17.01.3","3","19:00",0,19.862,-33.419,1.069104,"NA"
"392",392,"17.01.3","3","20:4n6",0,0.951,-35.077,1.06729,"0.7919"
"393",393,"17.01.3","3","20:5n3",0,1.325,-35.219,1.067134,"0.797"
"394",394,"17.06.1","3","12:00",0,16.268,-50.709,1.05018,"NA"
"395",395,"17.06.1","3","14:00",0,3.821,19.059,1.126494,"NA"
"396",396,"17.06.1","3","a15:0",0,59.17,-6.058,1.099034,"0.7494"
"397",397,"17.06.1","3","15:00",0,6.329,-14.059,1.090283,"NA"
"398",398,"17.06.1","3","16:1n9/i16:0",0,6.519,224.815,1.350869,"0.7606"
"399",399,"17.06.1","3","16:00",0,54.889,43.064,1.152724,"NA"
"400",400,"17.06.1","3","i17:0",0,8.418,-28.409,1.074586,"0.76"
"401",401,"17.06.1","3","17:0cy",0,15.368,-10.868,1.093774,"0.7654"
"402",402,"17.06.1","3","17:00",0,11.339,-25.661,1.077592,"NA"
"403",403,"17.06.1","3","trans-18:1n9",0,17.328,36.715,1.145788,"0.7697"
"404",404,"17.06.1","3","18:00",0,12.751,37.047,1.14615,"NA"
"405",405,"17.06.1","3","19:0cy",0,74.813,-32.34,1.070284,"0.7736"
"406",406,"17.06.1","3","19:00",0,17.07,-32.913,1.069657,"NA"
"407",407,"17.06.1","3","20:4n6",0,1.807,-24.224,1.079165,"0.7919"
"408",408,"17.06.1","3","20:5n3",0,2.632,-30.103,1.072732,"0.797"
"409",409,"17.06.2","3","12:00",0,17.298,-30.7,1.072079,"NA"
"410",410,"17.06.2","3","14:00",0,1.459,-24.541,1.078818,"NA"
"411",411,"17.06.2","3","a15:0",0,61.452,-15.378,1.088841,"0.7494"
"412",412,"17.06.2","3","15:00",0,6.829,-22.47,1.081083,"NA"
"413",413,"17.06.2","3","16:1n9/i16:0",0,7.19,39.093,1.148386,"0.7606"
"414",414,"17.06.2","3","16:00",0,59.52,-5.43,1.099721,"NA"
"415",415,"17.06.2","3","i17:0",0,10.416,-29.632,1.073247,"0.76"
"416",416,"17.06.2","3","17:0cy",0,16.959,-18.722,1.085183,"0.7654"
"417",417,"17.06.2","3","17:00",0,12.901,-28.651,1.07432,"NA"
"418",418,"17.06.2","3","18:2n9,12 and cis-18:1n9 and 183n3",0,20.228,-12.166,1.092354,"NA"
"419",419,"17.06.2","3","18:00",0,16.503,-10.993,1.093637,"NA"
"420",420,"17.06.2","3","19:0cy",0,65.168,-32.754,1.069831,"0.7736"
"421",421,"17.06.2","3","19:00",0,18.85,-32.744,1.069842,"NA"
"422",422,"17.06.2","3","20:4n6",0,1.882,-23.432,1.080031,"0.7919"
"423",423,"17.06.2","3","20:5n3",0,2.874,-30.516,1.07228,"0.797"
"424",424,"17.01.1b","3","12:00",0,14.918,-31.056,1.071689,"NA"
"425",425,"17.01.1b","3","14:00",0,1.978,-10.831,1.093814,"NA"
"426",426,"17.01.1b","3","a15:0",0,33.217,-15.464,1.088746,"0.7494"
"427",427,"17.01.1b","3","15:00",0,3.316,-15.456,1.088755,"NA"
"428",428,"17.01.1b","3","16:1n9/i16:0",0,1.478,150.412,1.269851,"0.7606"
"429",429,"17.01.1b","3","16:00",0,19.411,-6.047,1.099046,"NA"
"430",430,"17.01.1b","3","i17:0",0,8.254,-32.537,1.070069,"0.76"
"431",431,"17.01.1b","3","17:0cy",0,5.565,-16.667,1.087431,"0.7654"
"432",432,"17.01.1b","3","17:00",0,4.791,-27.772,1.075282,"NA"
"433",433,"17.01.1b","3","trans-18:1n9",0,5.853,33.048,1.141781,"0.7697"
"434",434,"17.01.1b","3","18:00",0,4.786,-0.379,1.105244,"NA"
"435",435,"17.01.1b","3","19:0cy",0,20.973,-33.446,1.069074,"0.7736"
"436",436,"17.01.1b","3","19:00",0,13.815,-32.444,1.07017,"NA"
"437",437,"17.01.1b","3","20:4n6",0,0.667,-37.936,1.064161,"0.7919"
"438",438,"17.01.1b","3","20:5n3",0,3.146,-32.305,1.070323,"0.797"
"439",439,"17.06.3","3","12:00",0,15.135,-31.129,1.071609,"NA"
"440",440,"17.06.3","3","14:00",0,2.747,-29.075,1.073857,"NA"
"441",441,"17.06.3","3","a15:0",0,46.03,-30.549,1.072244,"0.7494"
"442",442,"17.06.3","3","15:00",0,5.414,-30.773,1.071998,"NA"
"443",443,"17.06.3","3","16:1n9/i16:0",0,4.447,-21.347,1.082311,"0.7606"
"444",444,"17.06.3","3","16:00",0,44.535,-29.971,1.072876,"NA"
"445",445,"17.06.3","3","i17:0",0,8.113,-32.174,1.070466,"0.76"
"446",446,"17.06.3","3","17:0cy",0,11.962,-30.918,1.07184,"0.7654"
"447",447,"17.06.3","3","17:00",0,9.322,-34.58,1.067833,"NA"
"448",448,"17.06.3","3","trans-18:1n9",0,16,-29.511,1.07338,"0.7697"
"449",449,"17.06.3","3","18:00",0,10.409,-30.184,1.072643,"NA"
"450",450,"17.06.3","3","19:0cy",0,51.246,-34.95,1.067428,"0.7736"
"451",451,"17.06.3","3","19:00",0,15.754,-32.923,1.069646,"NA"
"452",452,"17.06.3","3","20:4n6",0,1.161,-35.712,1.066594,"0.7919"
"453",453,"17.06.3","3","20:5n3",0,2.386,-32.513,1.070095,"0.797"
"454",454,"18.05.1","3","12:00",0,14.9,-30.797,1.071972,"NA"
"455",455,"18.05.1","3","a15:0",0,36.705,-17.892,1.086091,"0.7494"
"456",456,"18.05.1","3","15:00",0,3.656,-16.556,1.087552,"NA"
"457",457,"18.05.1","3","16:1n9/i16:0",0,3.609,58.211,1.169268,"0.7606"
"458",458,"18.05.1","3","16:00",0,39.489,10.349,1.116973,"NA"
"459",459,"18.05.1","3","i17:0",0,5.917,-32.127,1.070517,"0.76"
"460",460,"18.05.1","3","17:0cy",0,10.929,-18.032,1.085938,"0.7654"
"461",461,"18.05.1","3","17:00",0,8.605,-28.716,1.07425,"NA"
"462",462,"18.05.1","3","trans-18:1n9",0,12.442,14.332,1.121328,"0.7697"
"463",463,"18.05.1","3","18:00",0,8.854,3.314,1.109282,"NA"
"464",464,"18.05.1","3","19:00",0,52.389,-33.987,1.068482,"NA"
"465",465,"18.05.1","3","20:4n6",0,0.527,-24.592,1.078761,"0.7919"
"466",466,"18.05.1","3","20:5n3",0,1.839,-31.899,1.070767,"0.797"
"467",467,"18.05.2","2.5","12:00",0,17.593,-31.539,1.071161,"NA"
"468",468,"18.05.2","2.5","14:00",0,6.146,-8.258,1.096628,"NA"
"469",469,"18.05.2","2.5","a15:0",0,43.022,-6.132,1.098953,"0.7494"
"470",470,"18.05.2","2.5","15:00",0,12.597,-24.119,1.079279,"NA"
"471",471,"18.05.2","2.5","16:1n9/i16:0",0,18.197,92.269,1.206445,"0.7606"
"472",472,"18.05.2","2.5","16:00",0,40.683,88.364,1.202185,"NA"
"473",473,"18.05.2","2.5","i17:0",0,12.503,-29.327,1.073581,"0.76"
"474",474,"18.05.2","2.5","17:0cy",0,16.102,-17.924,1.086056,"0.7654"
"475",475,"18.05.2","2.5","17:00",0,15.503,-12.615,1.091863,"NA"
"476",476,"18.05.2","2.5","trans-18:1n9",0,18.311,-0.326,1.105302,"0.7697"
"477",477,"18.05.2","2.5","18:00",0,12.012,68.79,1.180819,"NA"
"478",478,"18.05.2","2.5","19:0cy",0,35.074,-27.732,1.075326,"0.7736"
"479",479,"18.05.2","2.5","19:00",0,19.604,-31.597,1.071098,"NA"
"480",480,"18.05.2","2.5","20:4n6",0,9.51,-22.984,1.08052,"0.7919"
"481",481,"18.05.2","2.5","20:5n3",0,10.077,-27.34,1.075754,"0.797"
"482",482,"18.05.3","2.5","12:00",0,23.389,-30.118,1.072716,"NA"
"483",483,"18.05.3","2.5","14:00",0,2.473,-19.296,1.084555,"NA"
"484",484,"18.05.3","2.5","a15:0",0,40.611,-22.289,1.081281,"0.7494"
"485",485,"18.05.3","2.5","15:00",0,4.894,-22.323,1.081244,"NA"
"486",486,"18.05.3","2.5","16:1n9/i16:0",0,5.196,12.39,1.119204,"0.7606"
"487",487,"18.05.3","2.5","16:00",0,53.494,-21.604,1.082031,"NA"
"488",488,"18.05.3","2.5","i17:0",0,5.906,-32.358,1.070265,"0.76"
"489",489,"18.05.3","2.5","17:0cy",0,11.789,-27.285,1.075816,"0.7654"
"490",490,"18.05.3","2.5","17:00",0,9.497,-31.888,1.070779,"NA"
"491",491,"18.05.3","2.5","trans-18:1n9",0,19.255,-23.828,1.079598,"0.7697"
"492",492,"18.05.3","2.5","18:00",0,12.725,-20.185,1.083583,"NA"
"493",493,"18.05.3","2.5","19:0cy",0,51.257,-34.727,1.067672,"0.7736"
"494",494,"18.05.3","2.5","19:00",0,21.567,-31.721,1.070962,"NA"
"495",495,"18.05.3","2.5","20:4n6",0,1.037,-40.288,1.061586,"0.7919"
"496",496,"18.05.3","2.5","20:5n3",0,1.295,-35.948,1.066336,"0.797"
"497",497,"02.10.1","2.5","12:00",0,13.457,-30.539,1.072254,"NA"
"498",498,"02.10.1","2.5","14:00",0,1.264,175.821,1.297535,"NA"
"499",499,"02.10.1","2.5","a15:0",0,22.725,1.16,1.106927,"0.7494"
"500",500,"02.10.1","2.5","15:00",0,2.152,-6.373,1.098689,"NA"
"501",501,"02.10.1","2.5","16:1n9/i16:0",0,3.413,293.71,1.425772,"0.7606"
"502",502,"02.10.1","2.5","16:00",0,26.02,66.261,1.178058,"NA"
"503",503,"02.10.1","2.5","i17:0",0,0.446,-32.615,1.069984,"0.76"
"504",504,"02.10.1","2.5","17:0cy",0,7.563,-9.78,1.094963,"0.7654"
"505",505,"02.10.1","2.5","17:00",0,6.328,-23.515,1.07994,"NA"
"506",506,"02.10.1","2.5","trans-18:1n9",0,7.789,-14.042,1.090302,"0.7697"
"507",507,"02.10.1","2.5","18:00",0,6.797,35.632,1.144604,"NA"
"508",508,"02.10.1","2.5","19:0cy",0,24.889,-32.249,1.070384,"0.7736"
"509",509,"02.10.1","2.5","19:00",0,13.575,-32.347,1.070277,"NA"
"510",510,"02.10.1","2.5","20:4n6",0,0.402,-18.368,1.085571,"0.7919"
"511",511,"02.10.3","3","12:00",0,15.975,-31.012,1.071737,"NA"
"512",512,"02.10.3","3","14:00",0,1.404,-21.05,1.082636,"NA"
"513",513,"02.10.3","3","a15:0",0,30.103,-25.635,1.077621,"0.7494"
"514",514,"02.10.3","3","15:00",0,3.332,-27.043,1.07608,"NA"
"515",515,"02.10.3","3","16:1n9/i16:0",0,3.469,22.559,1.130319,"0.7606"
"516",516,"02.10.3","3","16:00",0,35.431,-20.376,1.083373,"NA"
"517",517,"02.10.3","3","i17:0",0,4.765,-32.602,1.069997,"0.76"
"518",518,"02.10.3","3","17:0cy",0,10.241,-28.372,1.074626,"0.7654"
"519",519,"02.10.3","3","17:00",0,7.975,-31.942,1.070719,"NA"
"520",520,"02.10.3","3","trans-18:1n9",0,10.98,-24.529,1.078831,"0.7697"
"521",521,"02.10.3","3","18:00",0,8.991,-19.807,1.083997,"NA"
"522",522,"02.10.3","3","19:0cy",0,42.485,-34.432,1.067995,"0.7736"
"523",523,"02.10.3","3","19:00",0,16.684,-33.036,1.069523,"NA"
"524",524,"02.10.3","3","20:4n6",0,1.031,-37.747,1.064367,"0.7919"
"525",525,"02.10.3","3","20:5n3",0,1.133,-35.216,1.067137,"0.797"
"526",526,"02.08.1","3","12:00",0,16.26,-30.341,1.072472,"NA"
"527",527,"02.08.1","3","14:00",0,1.319,56.009,1.166862,"NA"
"528",528,"02.08.1","3","a15:0",0,24.472,-0.793,1.104792,"0.7494"
"529",529,"02.08.1","3","15:00",0,2.782,30.283,1.13876,"NA"
"530",530,"02.08.1","3","16:1n9/i16:0",0,2.671,161.454,1.281884,"0.7606"
"531",531,"02.08.1","3","16:00",0,26.196,274.107,1.404471,"NA"
"532",532,"02.08.1","3","i17:0",0,4.779,-33.194,1.069349,"0.76"
"533",533,"02.08.1","3","17:0cy",0,7.285,9.359,1.115891,"0.7654"
"534",534,"02.08.1","3","17:00",0,5.792,-0.752,1.104836,"NA"
"535",535,"02.08.1","3","18:2n9,12 and cis-18:1n9 and 183n3",0,7.519,167.034,1.287962,"NA"
"536",536,"02.08.1","3","18:00",0,6.701,256.925,1.385793,"NA"
"537",537,"02.08.1","3","19:0cy",0,26.491,-1.891,1.10359,"0.7736"
"538",538,"02.08.1","3","19:00",0,16.918,-27.714,1.075346,"NA"
"539",539,"02.08.1","3","20:4n6",0,0.78,-21.569,1.082069,"0.7919"
"540",540,"02.08.1","3","20:5n3",0,1.45,-31.553,1.071145,"0.797"
"541",541,"02.08.2","3","12:00",0,16.54,-31.564,1.071133,"NA"
"542",542,"02.08.2","3","14:00",0,3.173,21.752,1.129437,"NA"
"543",543,"02.08.2","3","a15:0",0,49.215,-2.035,1.103433,"0.7494"
"544",544,"02.08.2","3","15:00",0,6.361,-2.033,1.103435,"NA"
"545",545,"02.08.2","3","16:1n9/i16:0",0,9.255,67.205,1.179089,"0.7606"
"546",546,"02.08.2","3","16:00",0,68.84,91.233,1.205315,"NA"
"547",547,"02.08.2","3","i17:0",0,10.095,-26.288,1.076906,"0.76"
"548",548,"02.08.2","3","17:0cy",0,17.487,-8.824,1.096009,"0.7654"
"549",549,"02.08.2","3","17:00",0,13.065,-15.569,1.088632,"NA"
"550",550,"02.08.2","3","trans-18:1n9",0,22.234,55.988,1.16684,"0.7697"
"551",551,"02.08.2","3","18:00",0,21.677,79.111,1.192086,"NA"
"552",552,"02.08.2","3","19:0cy",0,75.379,-21.293,1.08237,"0.7736"
"553",553,"02.08.2","3","19:00",0,19.62,-30.151,1.072679,"NA"
"554",554,"02.08.2","3","20:4n6",0,1.567,-12.008,1.092527,"0.7919"
"555",555,"02.08.2","3","20:5n3",0,0.607,-20.28,1.083479,"0.797"
"556",556,"02.08.3","3","12:00",0,14.947,-30.611,1.072176,"NA"
"557",557,"02.08.3","3","14:00",0,4.921,-9.107,1.0957,"NA"
"558",558,"02.08.3","3","a15:0",0,80.145,-16.425,1.087695,"0.7494"
"559",559,"02.08.3","3","15:00",0,8.762,-12.135,1.092388,"NA"
"560",560,"02.08.3","3","16:1n9/i16:0",0,15.664,6.036,1.112258,"0.7606"
"561",561,"02.08.3","3","16:00",0,115.871,10.968,1.11765,"NA"
"562",562,"02.08.3","3","i17:0",0,15.26,-29.845,1.073015,"0.76"
"563",563,"02.08.3","3","17:0cy",0,23.756,-20.794,1.082916,"0.7654"
"564",564,"02.08.3","3","17:00",0,17.504,-25.171,1.078128,"NA"
"565",565,"02.08.3","3","trans-18:1n9",0,40.931,13.647,1.120578,"0.7697"
"566",566,"02.08.3","3","18:00",0,41.198,15.277,1.12236,"NA"
"567",567,"02.08.3","3","19:0cy",0,128.818,-27.354,1.07574,"0.7736"
"568",568,"02.08.3","3","19:00",0,19.84,-30.283,1.072535,"NA"
"569",569,"02.08.3","3","20:4n6",0,2.549,-28.88,1.07407,"0.7919"
"570",570,"02.08.3","3","20:5n3",0,0.689,-30.425,1.072379,"0.797"
"571",571,"20.04.1","3","12:00",0,19.005,-30.964,1.071789,"NA"
"572",572,"20.04.1","3","14:00",0,1.525,58.673,1.169772,"NA"
"573",573,"20.04.1","3","a15:0",0,22.802,36.138,1.145158,"0.7494"
"574",574,"20.04.1","3","15:00",0,2.734,12.051,1.118834,"NA"
"575",575,"20.04.1","3","16:1n9/i16:0",0,3.286,410.839,1.552852,"0.7606"
"576",576,"20.04.1","3","16:00",0,27.871,66.791,1.178637,"NA"
"577",577,"20.04.1","3","i17:0",0,7.357,-26,1.077221,"0.76"
"578",578,"20.04.1","3","17:0cy",0,8.266,6.989,1.1133,"0.7654"
"579",579,"20.04.1","3","17:00",0,6.073,-23.342,1.080129,"NA"
"580",580,"20.04.1","3","18:2n9,12 and cis-18:1n9 and 183n3",0,8.645,19.43,1.126899,"NA"
"581",581,"20.04.1","3","18:00",0,5.914,64.396,1.176021,"NA"
"582",582,"20.04.1","3","19:0cy",0,31.961,-31.643,1.071046,"0.7736"
"583",583,"20.04.1","3","19:00",0,18.236,-33.186,1.069358,"NA"
"584",584,"20.04.1","3","20:4n6",0,0.362,23.366,1.131201,"0.7919"
"585",585,"20.04.1","3","20:5n3",0,0.312,-3.613,1.101708,"0.797"
"586",586,"20.04.2","3","12:00",0,15.767,-30.701,1.072077,"NA"
"587",587,"20.04.2","3","a15:0",0,25.82,-19.303,1.084548,"0.7494"
"588",588,"20.04.2","3","15:00",0,2.578,-20.191,1.083576,"NA"
"589",589,"20.04.2","3","16:1n9/i16:0",0,3.454,19.063,1.126499,"0.7606"
"590",590,"20.04.2","3","16:00",0,35.434,-12.214,1.092302,"NA"
"591",591,"20.04.2","3","i17:0",0,7.031,-31.891,1.070776,"0.76"
"592",592,"20.04.2","3","17:0cy",0,10.16,-23.923,1.079493,"0.7654"
"593",593,"20.04.2","3","17:00",0,8.404,-30.626,1.07216,"NA"
"594",594,"20.04.2","3","18:2n9,12 and cis-18:1n9 and 183n3",0,9.773,-9.201,1.095596,"NA"
"595",595,"20.04.2","3","18:00",0,7.875,-15.119,1.089124,"NA"
"596",596,"20.04.2","3","19:0cy",0,48.387,-33.89,1.068588,"0.7736"
"597",597,"20.04.2","3","19:00",0,17.124,-33.892,1.068586,"NA"
"598",598,"20.04.2","3","20:4n6",0,0.403,-37.559,1.064574,"0.7919"
"599",599,"22.07.2","2.5","12:00",0,22.621,-29.427,1.073472,"NA"
"600",600,"22.07.2","2.5","14:00",0,2.768,31.131,1.139687,"NA"
"601",601,"22.07.2","2.5","a15:0",0,53.636,4.123,1.110166,"0.7494"
"602",602,"22.07.2","2.5","15:00",0,5.876,14.779,1.121816,"NA"
"603",603,"22.07.2","2.5","16:1n9/i16:0",0,5.916,123.196,1.240182,"0.7606"
"604",604,"22.07.2","2.5","16:00",0,53.288,175.896,1.297615,"NA"
"605",605,"22.07.2","2.5","i17:0",0,9.952,-25.107,1.078198,"0.76"
"606",606,"22.07.2","2.5","17:0cy",0,15.598,5.864,1.11207,"0.7654"
"607",607,"22.07.2","2.5","17:00",0,12.335,-7.753,1.09718,"NA"
"608",608,"22.07.2","2.5","trans-18:1n9",0,17.245,109.62,1.225376,"0.7697"
"609",609,"22.07.2","2.5","18:00",0,10.482,222.556,1.348412,"NA"
"610",610,"22.07.2","2.5","19:0cy",0,55.328,-4.415,1.100831,"0.7736"
"611",611,"22.07.2","2.5","19:00",0,22.764,-26.866,1.076274,"NA"
"612",612,"22.07.2","2.5","20:4n6",0,0.799,-4.485,1.100754,"0.7919"
"613",613,"22.07.2","2.5","20:5n3",0,2.267,-22.458,1.081097,"0.797"
"614",614,"22.07.3","3","12:00",0,17.053,-31.085,1.071657,"NA"
"615",615,"22.07.3","3","14:00",0,2.864,-27.465,1.075618,"NA"
"616",616,"22.07.3","3","a15:0",0,49.456,-29.986,1.07286,"0.7494"
"617",617,"22.07.3","3","15:00",0,6.679,-29.38,1.073523,"NA"
"618",618,"22.07.3","3","16:1n9/i16:0",0,6.974,-26.717,1.076437,"0.7606"
"619",619,"22.07.3","3","16:00",0,70.264,-24.195,1.079196,"NA"
"620",620,"22.07.3","3","i17:0",0,10.799,-31.398,1.071315,"0.76"
"621",621,"22.07.3","3","17:0cy",0,17.124,-31.473,1.071233,"0.7654"
"622",622,"22.07.3","3","17:00",0,13.237,-33.651,1.06885,"NA"
"623",623,"22.07.3","3","trans-18:1n9",0,30.086,-26.858,1.076282,"0.7697"
"624",624,"22.07.3","3","18:00",0,15.95,-23.53,1.079923,"NA"
"625",625,"22.07.3","3","19:0cy",0,89.599,-33.974,1.068496,"0.7736"
"626",626,"22.07.3","3","19:00",0,19.687,-33.749,1.068743,"NA"
"627",627,"22.07.3","3","20:4n6",0,1.208,-38.93,1.063073,"0.7919"
"628",628,"22.07.3","3","20:5n3",0,0.561,-34.586,1.067826,"0.797"
"629",629,"24.02.1","3","12:00",0,16.355,-31.198,1.071533,"NA"
"630",630,"24.02.1","3","14:00",0,2.686,43.288,1.152969,"NA"
"631",631,"24.02.1","3","a15:0",0,48.495,14.87,1.121916,"0.7494"
"632",632,"24.02.1","3","15:00",0,6.009,7.882,1.114276,"NA"
"633",633,"24.02.1","3","16:1n9/i16:0",0,5.932,117.928,1.234437,"0.7606"
"634",634,"24.02.1","3","16:00",0,57.097,148.407,1.267666,"NA"
"635",635,"24.02.1","3","i17:0",0,2.23,-26.945,1.076187,"0.76"
"636",636,"24.02.1","3","17:0cy",0,16.461,3.805,1.109819,"0.7654"
"637",637,"24.02.1","3","17:00",0,12.859,-11.918,1.092625,"NA"
"638",638,"24.02.1","3","trans-18:1n9",0,17.524,95.585,1.210064,"0.7697"
"639",639,"24.02.1","3","18:00",0,13.191,178.054,1.299966,"NA"
"640",640,"24.02.1","3","19:0cy",0,74.837,-14.477,1.089827,"0.7736"
"641",641,"24.02.1","3","19:00",0,19.073,-27.553,1.075522,"NA"
"642",642,"24.02.1","3","20:4n6",0,0.673,-8.769,1.096069,"0.7919"
"643",643,"24.02.1","3","20:5n3",0,0.4,-20.691,1.083029,"0.797"
"644",644,"24.02.2","3","12:00",0,15.138,-30.259,1.072562,"NA"
"645",645,"24.02.2","3","14:00",0,2.564,3.2,1.109158,"NA"
"646",646,"24.02.2","3","a15:0",0,0.933,-27.526,1.075552,"0.7494"
"647",647,"24.02.2","3","15:00",0,5.125,-5.837,1.099276,"NA"
"648",648,"24.02.2","3","16:1n9/i16:0",0,5.627,33.704,1.142498,"0.7606"
"649",649,"24.02.2","3","16:00",0,61.324,65.97,1.17774,"NA"
"650",650,"24.02.2","3","i17:0",0,4.6,-34.182,1.068269,"0.76"
"651",651,"24.02.2","3","17:0cy",0,15.898,-15.861,1.088312,"0.7654"
"652",652,"24.02.2","3","17:00",0,12.05,-24.298,1.079084,"NA"
"653",653,"24.02.2","3","trans-18:1n9",0,20.011,35.708,1.144688,"0.7697"
"654",654,"24.02.2","3","18:00",0,14.166,84.86,1.19836,"NA"
"655",655,"24.02.2","3","19:0cy",0,68.678,-24.253,1.079133,"0.7736"
"656",656,"24.02.2","3","19:00",0,17.33,-30.015,1.072828,"NA"
"657",657,"24.02.2","3","20:4n6",0,1.181,-12.38,1.09212,"0.7919"
"658",658,"24.02.2","3","20:5n3",0,1.144,-26.588,1.076577,"0.797"
"659",659,"24.02.3","3","12:00",0,16.424,-30.81,1.071959,"NA"
"660",660,"24.02.3","3","14:00",0,2.528,-13.643,1.090739,"NA"
"661",661,"24.02.3","3","a15:0",0,39.939,-23.023,1.080478,"0.7494"
"662",662,"24.02.3","3","15:00",0,3.553,-17.605,1.086405,"NA"
"663",663,"24.02.3","3","16:1n9/i16:0",0,5.353,6.948,1.113255,"0.7606"
"664",664,"24.02.3","3","16:00",0,53.206,14.356,1.121353,"NA"
"665",665,"24.02.3","3","i17:0",0,10.309,-31.45,1.071258,"0.76"
"666",666,"24.02.3","3","17:0cy",0,13.505,-26.508,1.076665,"0.7654"
"667",667,"24.02.3","3","17:00",0,10.48,-29.26,1.073654,"NA"
"668",668,"24.02.3","3","trans-18:1n9",0,21.603,0.32,1.106009,"0.7697"
"669",669,"24.02.3","3","18:00",0,12.964,17.321,1.124595,"NA"
"670",670,"24.02.3","3","19:0cy",0,68.309,-29.972,1.072875,"0.7736"
"671",671,"24.02.3","3","19:00",0,17.552,-33.255,1.069283,"NA"
"672",672,"24.02.3","3","20:4n6",0,1.274,-40.574,1.061274,"0.7919"
"673",673,"28.01.2","2.5","12:00",0,14.165,-30.79,1.07198,"NA"
"674",674,"28.01.2","2.5","14:00",0,1.007,16.909,1.124144,"NA"
"675",675,"28.01.2","2.5","a15:0",0,13.962,-1.432,1.104093,"0.7494"
"676",676,"28.01.2","2.5","15:00",0,1.597,-5.659,1.099471,"NA"
"677",677,"28.01.2","2.5","16:1n9/i16:0",0,2.141,149.287,1.268625,"0.7606"
"678",678,"28.01.2","2.5","16:00",0,19.242,43.36,1.153047,"NA"
"679",679,"28.01.2","2.5","17:00",0,5.175,-21.555,1.082084,"NA"
"680",680,"28.01.2","2.5","trans-18:1n9",0,4.523,79.317,1.192311,"0.7697"
"681",681,"28.01.2","2.5","18:00",0,4.899,31.951,1.140582,"NA"
"682",682,"28.01.2","2.5","19:0cy",0,23.773,-31.772,1.070905,"0.7736"
"683",683,"28.01.2","2.5","19:00",0,14.349,-32.647,1.069949,"NA"
"684",684,"28.01.2","2.5","20:4n6",0,0.304,-28.444,1.074547,"0.7919"
"685",685,"28.01.3","2.5","12:00",0,23.778,-30.193,1.072633,"NA"
"686",686,"28.01.3","2.5","14:00",0,3.155,-17.153,1.0869,"NA"
"687",687,"28.01.3","2.5","a15:0",0,50.296,-19.895,1.083899,"0.7494"
"688",688,"28.01.3","2.5","15:00",0,5.58,-22.491,1.08106,"NA"
"689",689,"28.01.3","2.5","16:1n9/i16:0",0,6.477,40.893,1.150352,"0.7606"
"690",690,"28.01.3","2.5","16:00",0,56.155,-18.55,1.085372,"NA"
"691",691,"28.01.3","2.5","i17:0",0,9.467,-27.527,1.07555,"0.76"
"692",692,"28.01.3","2.5","17:0cy",0,14.866,-25.452,1.07782,"0.7654"
"693",693,"28.01.3","2.5","17:00",0,11.925,-31.623,1.071069,"NA"
"694",694,"28.01.3","2.5","trans-18:1n9",0,15.512,-11.014,1.093615,"0.7697"
"695",695,"28.01.3","2.5","18:00",0,13.504,-19.551,1.084276,"NA"
"696",696,"28.01.3","2.5","19:0cy",0,55.977,-34.193,1.068257,"0.7736"
"697",697,"28.01.3","2.5","19:00",0,22.379,-32.04,1.070613,"NA"
"698",698,"28.01.3","2.5","20:4n6",0,1.275,-26.889,1.076249,"0.7919"
"699",699,"28.01.3","2.5","20:5n3",0,1.214,-33.379,1.069148,"0.797"
"700",700,"03.07.2","3","12:00",0,17.461,-30.823,1.071944,"NA"
"701",701,"03.07.2","3","14:00",0,1.563,0.081,1.105747,"NA"
"702",702,"03.07.2","3","a15:0",0,37.314,-17.423,1.086604,"0.7494"
"703",703,"03.07.2","3","15:00",0,3.773,-7.887,1.097033,"NA"
"704",704,"03.07.2","3","16:1n9/i16:0",0,3.256,41.474,1.150987,"0.7606"
"705",705,"03.07.2","3","16:00",0,42.64,79.322,1.192316,"NA"
"706",706,"03.07.2","3","i17:0",0,4.631,-33.41,1.069113,"0.76"
"707",707,"03.07.2","3","17:0cy",0,11.566,-14.838,1.089432,"0.7654"
"708",708,"03.07.2","3","17:00",0,9.16,-21.894,1.081713,"NA"
"709",709,"03.07.2","3","trans-18:1n9",0,13.068,81.546,1.194744,"0.7697"
"710",710,"03.07.2","3","18:00",0,7.418,134.027,1.251992,"NA"
"711",711,"03.07.2","3","19:0cy",0,55.263,-25.319,1.077966,"0.7736"
"712",712,"03.07.2","3","19:00",0,18.83,-30.225,1.072599,"NA"
"713",713,"03.07.2","3","20:4n6",0,0.55,8.067,1.114478,"0.7919"
"714",714,"03.07.2","3","20:5n3",0,1.293,-22.79,1.080733,"0.797"
"715",715,"03.07.3","2.5","12:00",0,14.647,-30.425,1.072379,"NA"
"716",716,"03.07.3","2.5","14:00",0,2.183,6.14,1.112371,"NA"
"717",717,"03.07.3","2.5","a15:0",0,36.978,-15.45,1.088762,"0.7494"
"718",718,"03.07.3","2.5","15:00",0,3.589,-4.167,1.101102,"NA"
"719",719,"03.07.3","2.5","16:1n9/i16:0",0,4.49,31.047,1.139595,"0.7606"
"720",720,"03.07.3","2.5","16:00",0,45.948,88.825,1.202688,"NA"
"721",721,"03.07.3","2.5","i17:0",0,5.903,-33.666,1.068833,"0.76"
"722",722,"03.07.3","2.5","17:0cy",0,11.487,-18.896,1.084993,"0.7654"
"723",723,"03.07.3","2.5","17:00",0,8.411,-22.575,1.080968,"NA"
"724",724,"03.07.3","2.5","trans-18:1n9",0,15.126,65.979,1.17775,"0.7697"
"725",725,"03.07.3","2.5","18:00",0,9.212,92.353,1.206537,"NA"
"726",726,"03.07.3","2.5","19:0cy",0,0.316,-89.631,1.007556,"0.7736"
"727",727,"03.07.3","2.5","19:00",0,0.348,-88.9,1.008357,"NA"
"728",728,"03.07.3","2.5","20:4n6",0,0.559,-55.185,1.045281,"0.7919"
"729",729,"34.06.1","3","12:00",0,18.828,-30.774,1.071998,"NA"
"730",730,"34.06.1","3","14:00",0,5.522,-0.903,1.104671,"NA"
"731",731,"34.06.1","3","a15:0",0,73.043,-6.397,1.098664,"0.7494"
"732",732,"34.06.1","3","15:00",0,7.765,-15.387,1.088831,"NA"
"733",733,"34.06.1","3","16:1n9/i16:0",0,11.895,81.683,1.194893,"0.7606"
"734",734,"34.06.1","3","16:00",0,94.143,0.488,1.106192,"NA"
"735",735,"34.06.1","3","i17:0",0,14.554,-27.702,1.075359,"0.76"
"736",736,"34.06.1","3","17:0cy",0,24.718,-19.205,1.084655,"0.7654"
"737",737,"34.06.1","3","17:00",0,17.266,-28.567,1.074413,"NA"
"738",738,"34.06.1","3","trans-18:1n9",0,29.493,0.388,1.106083,"0.7697"
"739",739,"34.06.1","3","18:00",0,32.64,-6.398,1.098662,"NA"
"740",740,"34.06.1","3","19:00",0,152.39,-32.437,1.070178,"NA"
"741",741,"34.06.1","3","20:4n6",0,2.941,-23.466,1.079994,"0.7919"
"742",742,"34.06.1","3","20:5n3",0,0.51,-24.537,1.078822,"0.797"
"743",743,"34.06.3","2.5","12:00",0,13.612,-30.785,1.071986,"NA"
"744",744,"34.06.3","2.5","14:00",0,2.508,2.88,1.108808,"NA"
"745",745,"34.06.3","2.5","a15:0",0,34.483,-6.188,1.098892,"0.7494"
"746",746,"34.06.3","2.5","15:00",0,3.415,-15.734,1.088452,"NA"
"747",747,"34.06.3","2.5","16:1n9/i16:0",0,5.798,140.077,1.258586,"0.7606"
"748",748,"34.06.3","2.5","16:00",0,48.352,5.948,1.112162,"NA"
"749",749,"34.06.3","2.5","i17:0",0,7.916,-29.551,1.073336,"0.76"
"750",750,"34.06.3","2.5","17:0cy",0,12.25,-16.862,1.087218,"0.7654"
"751",751,"34.06.3","2.5","17:00",0,9.748,-24.679,1.078666,"NA"
"752",752,"34.06.3","2.5","trans-18:1n9",0,14.841,-12.219,1.092296,"0.7697"
"753",753,"34.06.3","2.5","18:00",0,13.555,5.027,1.111155,"NA"
"754",754,"34.06.3","2.5","19:0cy",0,69.264,-32.294,1.070334,"0.7736"
"755",755,"34.06.3","2.5","19:00",0,14.9,-34.919,1.067462,"NA"
"756",756,"34.06.3","2.5","20:4n6",0,0.977,-29.571,1.073314,"0.7919"
"757",757,"37.04.1","2.5","12:00",0,13.735,-43.242,1.058353,"NA"
"758",758,"37.04.1","2.5","14:00",0,2.721,-8.449,1.096419,"NA"
"759",759,"37.04.1","2.5","a15:0",0,31.653,-15.47,1.08874,"0.7494"
"760",760,"37.04.1","2.5","15:00",0,4.043,-21.921,1.081684,"NA"
"761",761,"37.04.1","2.5","16:1n9/i16:0",0,3.878,79.633,1.192655,"0.7606"
"762",762,"37.04.1","2.5","16:00",0,32.483,6.638,1.112916,"NA"
"763",763,"37.04.1","2.5","i17:0",0,5.203,-30.769,1.072003,"0.76"
"764",764,"37.04.1","2.5","17:0cy",0,9.849,-17.909,1.086072,"0.7654"
"765",765,"37.04.1","2.5","17:00",0,8.124,-27.002,1.076125,"NA"
"766",766,"37.04.1","2.5","trans-18:1n9",0,9.301,64.424,1.176052,"0.7697"
"767",767,"37.04.1","2.5","18:00",0,8.852,10.132,1.116736,"NA"
"768",768,"37.04.1","2.5","19:0cy",0,31.431,-33.514,1.069,"0.7736"
"769",769,"37.04.1","2.5","19:00",0,13.261,-32.686,1.069905,"NA"
"770",770,"37.04.1","2.5","20:4n6",0,1.003,-29.525,1.073364,"0.7919"
"771",771,"37.04.1","2.5","20:5n3",0,1.322,-32.926,1.069643,"0.797"
"772",772,"37.04.2","2.5","12:00",0,22.236,-43.481,1.058092,"NA"
"773",773,"37.04.2","2.5","14:00",0,3.628,-18.251,1.085698,"NA"
"774",774,"37.04.2","2.5","a15:0",0,62.491,-20.469,1.083272,"0.7494"
"775",775,"37.04.2","2.5","15:00",0,6.488,-24.619,1.078731,"NA"
"776",776,"37.04.2","2.5","16:1n9/i16:0",0,6.467,13.777,1.12072,"0.7606"
"777",777,"37.04.2","2.5","16:00",0,68.148,-17.791,1.086202,"NA"
"778",778,"37.04.2","2.5","i17:0",0,12.006,-27.534,1.075543,"0.76"
"779",779,"37.04.2","2.5","17:0cy",0,19.314,-18.729,1.085176,"0.7654"
"780",780,"37.04.2","2.5","17:00",0,16.106,-30.32,1.072495,"NA"
"781",781,"37.04.2","2.5","trans-18:1n9",0,18.54,-16.781,1.087306,"0.7697"
"782",782,"37.04.2","2.5","18:00",0,13.891,-13.387,1.091018,"NA"
"783",783,"37.04.2","2.5","19:0cy",0,67.101,-33.654,1.068846,"0.7736"
"784",784,"37.04.2","2.5","19:00",0,22.886,-32.322,1.070304,"NA"
"785",785,"37.04.2","2.5","20:4n6",0,1.342,-33.379,1.069148,"0.7919"
"786",786,"37.04.2","2.5","20:5n3",0,1.384,-34.489,1.067932,"0.797"
"787",787,"37.04.3","3","12:00",0,17.125,-30.68,1.072101,"NA"
"788",788,"37.04.3","3","14:00",0,2.673,-11.962,1.092577,"NA"
"789",789,"37.04.3","3","a15:0",0,32.85,-14.116,1.090221,"0.7494"
"790",790,"37.04.3","3","15:00",0,3.645,-18.464,1.085465,"NA"
"791",791,"37.04.3","3","16:1n9/i16:0",0,5.246,38.604,1.147852,"0.7606"
"792",792,"37.04.3","3","16:00",0,49.102,-12.058,1.092472,"NA"
"793",793,"37.04.3","3","i17:0",0,8.638,-30.583,1.072206,"0.76"
"794",794,"37.04.3","3","17:0cy",0,11.78,-24.243,1.079143,"0.7654"
"795",795,"37.04.3","3","17:00",0,10.18,-30.773,1.071999,"NA"
"796",796,"37.04.3","3","trans-18:1n9",0,16.024,-16.886,1.087191,"0.7697"
"797",797,"37.04.3","3","18:00",0,11.758,0.135,1.105806,"NA"
"798",798,"37.04.3","3","19:0cy",0,56.947,-31.68,1.071006,"0.7736"
"799",799,"37.04.3","3","19:00",0,17.827,-33.986,1.068483,"NA"
"800",800,"37.04.3","3","20:4n6",0,0.993,-38.27,1.063795,"0.7919"
"801",801,"43.02.1","3","12:00",0,16.381,-30.553,1.07224,"NA"
"802",802,"43.02.1","3","14:00",0,0.333,-20.821,1.082887,"NA"
"803",803,"43.02.1","3","a15:0",0,20.698,-14.183,1.090148,"0.7494"
"804",804,"43.02.1","3","15:00",0,2.167,-18.1,1.085863,"NA"
"805",805,"43.02.1","3","16:1n9/i16:0",0,3.358,54.281,1.164975,"0.7606"
"806",806,"43.02.1","3","16:00",0,26.277,-2.534,1.102887,"NA"
"807",807,"43.02.1","3","i17:0",0,0.531,-34.187,1.068263,"0.76"
"808",808,"43.02.1","3","17:0cy",0,7.672,-19.975,1.083812,"0.7654"
"809",809,"43.02.1","3","17:00",0,6.477,-28.287,1.074718,"NA"
"810",810,"43.02.1","3","18:2n9,12 and cis-18:1n9 and 183n3",0,7.375,-13.706,1.09067,"NA"
"811",811,"43.02.1","3","18:00",0,6.827,-4.566,1.100665,"NA"
"812",812,"43.02.1","3","19:0cy",0,24.97,-31.671,1.071016,"0.7736"
"813",813,"43.02.1","3","19:00",0,17.405,-30.734,1.072042,"NA"
"814",814,"43.02.1","3","20:4n6",0,0.433,-31.019,1.07173,"0.7919"
"815",815,"43.02.2","2.5","12:00",0,15.765,-31.029,1.071719,"NA"
"816",816,"43.02.2","2.5","14:00",0,3.028,-15.426,1.088789,"NA"
"817",817,"43.02.2","2.5","a15:0",0,31.184,-14.737,1.089542,"0.7494"
"818",818,"43.02.2","2.5","15:00",0,2.77,-20.192,1.083575,"NA"
"819",819,"43.02.2","2.5","16:1n9/i16:0",0,4.47,34.857,1.143758,"0.7606"
"820",820,"43.02.2","2.5","16:00",0,46.248,3.983,1.110013,"NA"
"821",821,"43.02.2","2.5","i17:0",0,5.75,-29.59,1.073293,"0.76"
"822",822,"43.02.2","2.5","17:0cy",0,10.69,-12.436,1.092059,"0.7654"
"823",823,"43.02.2","2.5","17:00",0,8.193,-30.309,1.072507,"NA"
"824",824,"43.02.2","2.5","trans-18:1n9",0,11.91,21.36,1.129009,"0.7697"
"825",825,"43.02.2","2.5","18:00",0,9.569,-4.497,1.100741,"NA"
"826",826,"43.02.2","2.5","19:0cy",0,35.01,-33.216,1.069325,"0.7736"
"827",827,"43.02.2","2.5","19:00",0,15.52,-34.08,1.06838,"NA"
"828",828,"43.02.2","2.5","20:4n6",0,0.748,-9.638,1.095119,"0.7919"
"829",829,"43.02.3","2.5","12:00",0,23.491,-30.017,1.072826,"NA"
"830",830,"43.02.3","2.5","14:00",0,2.588,-26.627,1.076535,"NA"
"831",831,"43.02.3","2.5","a15:0",0,37.683,-28.149,1.07487,"0.7494"
"832",832,"43.02.3","2.5","15:00",0,5.01,-28.309,1.074695,"NA"
"833",833,"43.02.3","2.5","16:1n9/i16:0",0,5.567,-22.387,1.081173,"0.7606"
"834",834,"43.02.3","2.5","16:00",0,53.905,-28.335,1.074667,"NA"
"835",835,"43.02.3","2.5","i17:0",0,3.305,-30.222,1.072602,"0.76"
"836",836,"43.02.3","2.5","17:0cy",0,12.814,-28.911,1.074036,"0.7654"
"837",837,"43.02.3","2.5","17:00",0,10.403,-31.708,1.070976,"NA"
"838",838,"43.02.3","2.5","trans-18:1n9",0,17.354,-28.274,1.074734,"0.7697"
"839",839,"43.02.3","2.5","18:00",0,12.288,-31.324,1.071396,"NA"
"840",840,"43.02.3","2.5","19:0cy",0,64.964,-32.807,1.069773,"0.7736"
"841",841,"43.02.3","2.5","19:00",0,23.077,-32.806,1.069774,"NA"
"842",842,"43.02.3","2.5","20:4n6",0,0.812,-40.135,1.061754,"0.7919"
"843",843,"43.02.3","2.5","20:5n3",0,0.368,-33.895,1.068582,"0.797"
"844",844,"46.03.2","3","12:00",0,15.689,-30.206,1.072619,"NA"
"845",845,"46.03.2","3","14:00",0,0.653,-15.731,1.088455,"NA"
"846",846,"46.03.2","3","a15:0",0,40.575,8.925,1.115417,"0.7494"
"847",847,"46.03.2","3","15:00",0,4.64,22.225,1.129954,"NA"
"848",848,"46.03.2","3","16:1n9/i16:0",0,4.341,183.316,1.305697,"0.7606"
"849",849,"46.03.2","3","16:00",0,41.391,198.61,1.32235,"NA"
"850",850,"46.03.2","3","i17:0",0,6.39,-28.739,1.074224,"0.76"
"851",851,"46.03.2","3","17:0cy",0,11.677,13.486,1.120402,"0.7654"
"852",852,"46.03.2","3","17:00",0,9.093,-4.249,1.101013,"NA"
"853",853,"46.03.2","3","trans-18:1n9",0,13.16,167.731,1.288721,"0.7697"
"854",854,"46.03.2","3","18:00",0,10.587,264.65,1.394192,"NA"
"855",855,"46.03.2","3","19:0cy",0,51.421,-3.333,1.102014,"0.7736"
"856",856,"46.03.2","3","19:00",0,16.527,-26.643,1.076518,"NA"
"857",857,"46.03.2","3","20:4n6",0,1.474,30.038,1.138492,"0.7919"
"858",858,"46.03.2","3","20:5n3",0,1.592,-6.643,1.098394,"0.797"
"859",859,"46.03.3","3","12:00",0,16.264,-31.205,1.071526,"NA"
"860",860,"46.03.3","3","14:00",0,2.7,2.33,1.108206,"NA"
"861",861,"46.03.3","3","a15:0",0,40.212,-7.226,1.097757,"0.7494"
"862",862,"46.03.3","3","15:00",0,5.307,-9.038,1.095775,"NA"
"863",863,"46.03.3","3","16:1n9/i16:0",0,6.608,53.026,1.163605,"0.7606"
"864",864,"46.03.3","3","16:00",0,52.741,60.202,1.171441,"NA"
"865",865,"46.03.3","3","i17:0",0,1.895,-28.851,1.074102,"0.76"
"866",866,"46.03.3","3","17:0cy",0,14.911,-13.822,1.090542,"0.7654"
"867",867,"46.03.3","3","17:00",0,12.609,-19.895,1.083899,"NA"
"868",868,"46.03.3","3","18:2n9,12 and cis-18:1n9 and 183n3",0,17.373,27.88,1.136134,"NA"
"869",869,"46.03.3","3","trans-18:1n9",0,15.129,67.854,1.179797,"0.7697"
"870",870,"46.03.3","3","18:00",0,2.48,3.92,1.109944,"NA"
"871",871,"46.03.3","3","19:0cy",0,62.487,-21.165,1.082511,"0.7736"
"872",872,"46.03.3","3","19:00",0,18.624,-30.44,1.072363,"NA"
"873",873,"46.03.3","3","20:4n6",0,0.837,-16.363,1.087763,"0.7919"
"874",874,"46.03.3","3","20:5n3",0,1.165,-28.543,1.074439,"0.797"
"875",875,"48.01.1","2.5","12:00",0,13.373,-30.751,1.072023,"NA"
"876",876,"48.01.1","2.5","14:00",0,2.164,-11.303,1.093298,"NA"
"877",877,"48.01.1","2.5","a15:0",0,23.026,-12.915,1.091535,"0.7494"
"878",878,"48.01.1","2.5","15:00",0,2.543,-19.936,1.083855,"NA"
"879",879,"48.01.1","2.5","16:1n9/i16:0",0,4.229,34.065,1.142892,"0.7606"
"880",880,"48.01.1","2.5","16:00",0,38.317,-9.768,1.094977,"NA"
"881",881,"48.01.1","2.5","i17:0",0,4.833,-28.5,1.074486,"0.76"
"882",882,"48.01.1","2.5","17:0cy",0,8.13,-18.835,1.08506,"0.7654"
"883",883,"48.01.1","2.5","17:00",0,6.753,-27.595,1.075476,"NA"
"884",884,"48.01.1","2.5","trans-18:1n9",0,12.276,-20.016,1.083768,"0.7697"
"885",885,"48.01.1","2.5","18:00",0,9.293,-0.511,1.1051,"NA"
"886",886,"48.01.1","2.5","19:0cy",0,39.024,-29.295,1.073616,"0.7736"
"887",887,"48.01.1","2.5","19:00",0,13.078,-33.528,1.068984,"NA"
"888",888,"48.01.1","2.5","20:4n6",0,0.629,-37.427,1.064718,"0.7919"
"889",889,"48.01.1","2.5","20:5n3",0,2.688,-34.837,1.067552,"0.797"
"890",890,"48.01.3","2.5","12:00",0,22.727,-29.68,1.073195,"NA"
"891",891,"48.01.3","2.5","14:00",0,4.647,-19.945,1.083845,"NA"
"892",892,"48.01.3","2.5","a15:0",0,64.204,-21.279,1.082386,"0.7494"
"893",893,"48.01.3","2.5","15:00",0,7.354,-23.707,1.079729,"NA"
"894",894,"48.01.3","2.5","16:1n9/i16:0",0,7.922,30.06,1.138517,"0.7606"
"895",895,"48.01.3","2.5","16:00",0,71.754,-12.767,1.091696,"NA"
"896",896,"48.01.3","2.5","17:0cy",0,16.667,-22.389,1.081171,"0.7654"
"897",897,"48.01.3","2.5","17:00",0,12.276,-28.66,1.074311,"NA"
"898",898,"48.01.3","2.5","trans-18:1n9",0,23.343,-13.915,1.090441,"0.7697"
"899",899,"48.01.3","2.5","18:00",0,17.294,-8.01,1.0969,"NA"
"900",900,"48.01.3","2.5","19:0cy",0,72.254,-33.353,1.069176,"0.7736"
"901",901,"48.01.3","2.5","19:00",0,20.847,-32.267,1.070364,"NA"
"902",902,"48.01.3","2.5","20:4n6",0,1.702,-20.693,1.083027,"0.7919"
"903",903,"48.01.3","2.5","20:5n3",0,2.615,-27.828,1.075221,"0.797"
"904",904,"05.03.1","3","12:00",0,0.824,-29.694,1.073179,"NA"
"905",905,"05.03.1","3","14:00",0,0.198,-17.398,1.086631,"NA"
"906",906,"05.03.1","3","a15:0",0,18.554,-5.877,1.099232,"0.7494"
"907",907,"05.03.1","3","15:00",0,2.232,19.477,1.126951,"NA"
"908",908,"05.03.1","3","16:1n9/i16:0",0,2.478,87.028,1.200726,"0.7606"
"909",909,"05.03.1","3","16:00",0,35.978,175.047,1.296691,"NA"
"910",910,"05.03.1","3","i17:0",0,3.69,-31.48,1.071225,"0.76"
"911",911,"05.03.1","3","17:0cy",0,12.06,-0.153,1.105491,"0.7654"
"912",912,"05.03.1","3","17:00",0,10.471,-11.675,1.092891,"NA"
"913",913,"05.03.1","3","trans-18:1n9",0,11.63,152.802,1.272456,"0.7697"
"914",914,"05.03.1","3","18:00",0,7.108,215.253,1.340465,"NA"
"915",915,"05.03.1","3","19:0cy",0,50.615,-18.28,1.085666,"0.7736"
"916",916,"05.03.1","3","19:00",0,15.286,-28.824,1.074132,"NA"
"917",917,"05.03.1","3","20:4n6",0,0.48,-31.467,1.07124,"0.7919"
"918",918,"05.03.1","3","20:5n3",0,1.048,-28.099,1.074924,"0.797"
"919",919,"05.03.2","3","12:00",0,12.478,-30.652,1.072132,"NA"
"920",920,"05.03.2","3","14:00",0,1.347,105.379,1.220749,"NA"
"921",921,"05.03.2","3","a15:0",0,30.818,2.112,1.107968,"0.7494"
"922",922,"05.03.2","3","15:00",0,3.002,32.098,1.140743,"NA"
"923",923,"05.03.2","3","16:1n9/i16:0",0,3.317,159.072,1.279287,"0.7606"
"924",924,"05.03.2","3","16:00",0,35.485,162.492,1.283014,"NA"
"925",925,"05.03.2","3","i17:0",0,3.673,-27.818,1.075232,"0.76"
"926",926,"05.03.2","3","17:0cy",0,8.931,5.552,1.111729,"0.7654"
"927",927,"05.03.2","3","17:00",0,7.549,-7.999,1.096911,"NA"
"928",928,"05.03.2","3","trans-18:1n9",0,10.122,135.773,1.253894,"0.7697"
"929",929,"05.03.2","3","18:00",0,9.152,171.91,1.293274,"NA"
"930",930,"05.03.2","3","19:0cy",0,32.337,-11.901,1.092644,"0.7736"
"931",931,"05.03.2","3","19:00",0,13.364,-28.463,1.074527,"NA"
"932",932,"05.03.2","3","20:4n6",0,0.287,181.974,1.304235,"0.7919"
"933",933,"05.03.2","3","20:5n3",0,0.898,4.357,1.110422,"0.797"
"934",934,"05.03.3","2.5","14:00",0,0.508,-15.761,1.088422,"NA"
"935",935,"05.03.3","2.5","a15:0",0,17.008,-27.492,1.075589,"0.7494"
"936",936,"05.03.3","2.5","15:00",0,2.025,-18.612,1.085303,"NA"
"937",937,"05.03.3","2.5","16:1n9/i16:0",0,2.739,-10.624,1.094041,"0.7606"
"938",938,"05.03.3","2.5","16:00",0,33.382,21.513,1.129176,"NA"
"939",939,"05.03.3","2.5","i17:0",0,3.033,-32.706,1.069884,"0.76"
"940",940,"05.03.3","2.5","17:0cy",0,9.214,-26.385,1.0768,"0.7654"
"941",941,"05.03.3","2.5","17:00",0,7.353,-28.941,1.074003,"NA"
"942",942,"05.03.3","2.5","trans-18:1n9",0,12.884,4.012,1.110045,"0.7697"
"943",943,"05.03.3","2.5","18:00",0,8.308,14.881,1.121928,"NA"
"944",944,"05.03.3","2.5","19:0cy",0,41.784,-31.694,1.070991,"0.7736"
"945",945,"05.03.3","2.5","19:00",0,12.188,-34.021,1.068444,"NA"
"946",946,"05.03.3","2.5","20:5n3",0,0.838,-32.271,1.070359,"0.797"
"947",947,"05.09.2","3","12:00",0,2.627,-30.798,1.071971,"NA"
"948",948,"05.09.2","3","14:00",0,1.286,14.483,1.121492,"NA"
"949",949,"05.09.2","3","a15:0",0,29.307,-5.621,1.099512,"0.7494"
"950",950,"05.09.2","3","15:00",0,2.968,-0.573,1.105032,"NA"
"951",951,"05.09.2","3","16:1n9/i16:0",0,4.412,62.396,1.173838,"0.7606"
"952",952,"05.09.2","3","16:00",0,37.884,97.606,1.212269,"NA"
"953",953,"05.09.2","3","i17:0",0,3.573,-30.847,1.071918,"0.76"
"954",954,"05.09.2","3","17:0cy",0,11.585,-5.125,1.100054,"0.7654"
"955",955,"05.09.2","3","17:00",0,9.175,-17.209,1.086838,"NA"
"956",956,"05.09.2","3","trans-18:1n9",0,12.224,76.229,1.188939,"0.7697"
"957",957,"05.09.2","3","18:00",0,8.444,137.176,1.255424,"NA"
"958",958,"05.09.2","3","19:0cy",0,40.695,-14.479,1.089824,"0.7736"
"959",959,"05.09.2","3","19:00",0,13.471,-29.25,1.073665,"NA"
"960",960,"05.09.2","3","20:4n6",0,0.458,-21.45,1.082199,"0.7919"
"961",961,"05.09.2","3","20:5n3",0,2.122,-30.417,1.072389,"0.797"
"962",962,"05.09.3","3","12:00",0,2.029,-30.642,1.072142,"NA"
"963",963,"05.09.3","3","14:00",0,0.965,0.993,1.106744,"NA"
"964",964,"05.09.3","3","a15:0",0,18.402,-12.866,1.091589,"0.7494"
"965",965,"05.09.3","3","15:00",0,2.544,-7.85,1.097074,"NA"
"966",966,"05.09.3","3","16:1n9/i16:0",0,3.245,16.29,1.123467,"0.7606"
"967",967,"05.09.3","3","16:00",0,33.207,50.719,1.161085,"NA"
"968",968,"05.09.3","3","i17:0",0,0.934,-35.852,1.066442,"0.76"
"969",969,"05.09.3","3","17:0cy",0,9.161,-17.878,1.086106,"0.7654"
"970",970,"05.09.3","3","17:00",0,7.945,-22.845,1.080672,"NA"
"971",971,"05.09.3","3","trans-18:1n9",0,12.663,25.232,1.13324,"0.7697"
"972",972,"05.09.3","3","18:00",0,8.879,57.193,1.168156,"NA"
"973",973,"05.09.3","3","19:0cy",0,41.509,-23.498,1.079959,"0.7736"
"974",974,"05.09.3","3","19:00",0,14.446,-31.595,1.0711,"NA"
"975",975,"05.09.3","3","20:4n6",0,0.331,-30.674,1.072108,"0.7919"
"976",976,"05.09.3","3","20:5n3",0,0.468,-29.119,1.073809,"0.797"
"977",977,"52.04.2","2.5","12:00",0,14.219,-31.311,1.07141,"NA"
"978",978,"52.04.2","2.5","14:00",0,1.588,-13.51,1.090884,"NA"
"979",979,"52.04.2","2.5","a15:0",0,21.771,-18.062,1.085905,"0.7494"
"980",980,"52.04.2","2.5","15:00",0,3.03,-20.847,1.082859,"NA"
"981",981,"52.04.2","2.5","16:1n9/i16:0",0,1.973,133.997,1.251959,"0.7606"
"982",982,"52.04.2","2.5","16:00",0,19.054,19.599,1.127084,"NA"
"983",983,"52.04.2","2.5","i17:0",0,5.006,-31.277,1.071447,"0.76"
"984",984,"52.04.2","2.5","17:0cy",0,6.002,-12.268,1.092243,"0.7654"
"985",985,"52.04.2","2.5","17:00",0,5.274,-24.949,1.078371,"NA"
"986",986,"52.04.2","2.5","trans-18:1n9",0,5.197,-19.769,1.084037,"0.7697"
"987",987,"52.04.2","2.5","18:00",0,4.394,12.967,1.119835,"NA"
"988",988,"52.04.2","2.5","19:0cy",0,18.007,-32.751,1.069834,"0.7736"
"989",989,"52.04.2","2.5","19:00",0,13.834,-32.223,1.070412,"NA"
"990",990,"52.04.2","2.5","20:5n3",0,1.497,-32.997,1.069565,"0.797"
"991",991,"52.04.1","2.5","12:00",0,15.317,-30.726,1.07205,"NA"
"992",992,"52.04.1","2.5","14:00",0,1.567,-5.138,1.10004,"NA"
"993",993,"52.04.1","2.5","a15:0",0,24.677,-12.199,1.092318,"0.7494"
"994",994,"52.04.1","2.5","15:00",0,2.776,-16.679,1.087418,"NA"
"995",995,"52.04.1","2.5","16:1n9/i16:0",0,3.14,89.508,1.203433,"0.7606"
"996",996,"52.04.1","2.5","16:00",0,29.994,-1.423,1.104103,"NA"
"997",997,"52.04.1","2.5","i17:0",0,2.286,-32.572,1.070031,"0.76"
"998",998,"52.04.1","2.5","17:0cy",0,8.985,-16.852,1.087228,"0.7654"
"999",999,"52.04.1","2.5","17:00",0,7.513,-27.83,1.075219,"NA"
"1000",1000,"52.04.1","2.5","trans-18:1n9",0,7.697,-20.091,1.083686,"0.7697"
"1001",1001,"52.04.1","2.5","18:00",0,7.102,2.443,1.10833,"NA"
"1002",1002,"52.04.1","2.5","19:0cy",0,38.337,-32.15,1.070492,"0.7736"
"1003",1003,"52.04.1","2.5","19:00",0,16.143,-32.864,1.069711,"NA"
"1004",1004,"52.04.3","2","12:00",0,12.355,-30.77,1.072002,"NA"
"1005",1005,"52.04.3","2","14:00",0,0.845,25.791,1.133851,"NA"
"1006",1006,"52.04.3","2","a15:0",0,10.6,23.996,1.13189,"0.7494"
"1007",1007,"52.04.3","2","15:00",0,1.376,8.953,1.115447,"NA"
"1008",1008,"52.04.3","2","16:1n9/i16:0",0,1.786,411.855,1.553954,"0.7606"
"1009",1009,"52.04.3","2","16:00",0,16.661,73.434,1.185889,"NA"
"1010",1010,"52.04.3","2","i17:0",0,0.364,-41.099,1.060699,"0.76"
"1011",1011,"52.04.3","2","17:0cy",0,4.409,4.471,1.110548,"0.7654"
"1012",1012,"52.04.3","2","17:00",0,1.303,442.922,1.587605,"NA"
"1013",1013,"52.04.3","2","trans-18:1n9",0,6.182,11.195,1.117898,"0.7697"
"1014",1014,"52.04.3","2","18:00",0,4.183,288.586,1.420205,"NA"
"1015",1015,"52.04.3","2","19:0cy",0,13.561,-28.906,1.074041,"0.7736"
"1016",1016,"52.04.3","2","19:00",0,11.931,-31.422,1.071288,"NA"
"1017",1017,"52.04.3","2","20:4n6",0,1.479,-23.429,1.080034,"0.7919"
"1018",1018,"52.04.3","2","20:5n3",0,0.441,-28.237,1.074773,"0.797"
"1019",1019,"55.11.1","2.5","12:00",0,15.525,-30.794,1.071975,"NA"
"1020",1020,"55.11.1","2.5","14:00",0,1.551,15.202,1.122278,"NA"
"1021",1021,"55.11.1","2.5","a15:0",0,25.172,-6.832,1.098188,"0.7494"
"1022",1022,"55.11.1","2.5","15:00",0,2.589,-10.299,1.094396,"NA"
"1023",1023,"55.11.1","2.5","16:1n9/i16:0",0,3.676,97.322,1.211959,"0.7606"
"1024",1024,"55.11.1","2.5","16:00",0,33.021,17.184,1.124445,"NA"
"1025",1025,"55.11.1","2.5","i17:0",0,5.575,-28.233,1.074778,"0.76"
"1026",1026,"55.11.1","2.5","17:0cy",0,8.971,-16.221,1.087919,"0.7654"
"1027",1027,"55.11.1","2.5","17:00",0,7.45,-21.873,1.081737,"NA"
"1028",1028,"55.11.1","2.5","trans-18:1n9",0,11.84,-6.292,1.098778,"0.7697"
"1029",1029,"55.11.1","2.5","18:00",0,7.715,25.944,1.134019,"NA"
"1030",1030,"55.11.1","2.5","19:0cy",0,35.404,-32.314,1.070312,"0.7736"
"1031",1031,"55.11.1","2.5","19:00",0,15.532,-32.782,1.069801,"NA"
"1032",1032,"55.11.1","2.5","20:4n6",0,0.275,-36.994,1.065191,"0.7919"
"1033",1033,"55.11.1","2.5","20:5n3",0,0.382,-22.413,1.081145,"0.797"
"1034",1034,"55.11.2","2.5","12:00",0,26.657,-30.448,1.072355,"NA"
"1035",1035,"55.11.2","2.5","14:00",0,3.138,-3.161,1.102202,"NA"
"1036",1036,"55.11.2","2.5","a15:0",0,50.435,-3.35,1.101995,"0.7494"
"1037",1037,"55.11.2","2.5","15:00",0,5.83,-13.179,1.091246,"NA"
"1038",1038,"55.11.2","2.5","16:1n9/i16:0",0,7.637,70.347,1.182518,"0.7606"
"1039",1039,"55.11.2","2.5","16:00",0,65.621,-8.777,1.096061,"NA"
"1040",1040,"55.11.2","2.5","i17:0",0,3.28,-27.813,1.075237,"0.76"
"1041",1041,"55.11.2","2.5","17:0cy",0,17.758,-17.578,1.086435,"0.7654"
"1042",1042,"55.11.2","2.5","17:00",0,13.887,-28.413,1.074581,"NA"
"1043",1043,"55.11.2","2.5","trans-18:1n9",0,22.858,-14.966,1.089292,"0.7697"
"1044",1044,"55.11.2","2.5","18:00",0,15.874,4.075,1.110114,"NA"
"1045",1045,"55.11.2","2.5","19:0cy",0,77.63,-32.033,1.07062,"0.7736"
"1046",1046,"55.11.2","2.5","19:00",0,26.038,-32.649,1.069946,"NA"
"1047",1047,"55.11.2","2.5","20:4n6",0,0.628,-33.25,1.069288,"0.7919"
"1048",1048,"55.11.2","2.5","20:5n3",0,0.396,-32.403,1.070215,"0.797"
"1049",1049,"58.05.2","3","12:00",0,15.687,-30.489,1.072309,"NA"
"1050",1050,"58.05.2","3","14:00",0,2.191,26.225,1.134325,"NA"
"1051",1051,"58.05.2","3","a15:0",0,40.886,-3.452,1.101884,"0.7494"
"1052",1052,"58.05.2","3","15:00",0,4.53,9.435,1.115974,"NA"
"1053",1053,"58.05.2","3","16:1n9/i16:0",0,5.692,73.777,1.186263,"0.7606"
"1054",1054,"58.05.2","3","16:00",0,53.366,163.267,1.283859,"NA"
"1055",1055,"58.05.2","3","i17:0",0,4.644,-33.938,1.068536,"0.76"
"1056",1056,"58.05.2","3","17:0cy",0,13.989,-5.646,1.099484,"0.7654"
"1057",1057,"58.05.2","3","17:00",0,10.674,-14.25,1.090074,"NA"
"1058",1058,"58.05.2","3","trans-18:1n9",0,18.162,97.179,1.211804,"0.7697"
"1059",1059,"58.05.2","3","18:00",0,13.008,147.924,1.267139,"NA"
"1060",1060,"58.05.2","3","19:0cy",0,60.666,-15.053,1.089196,"0.7736"
"1061",1061,"58.05.2","3","19:00",0,18.057,-27.339,1.075756,"NA"
"1062",1062,"58.05.2","3","20:4n6",0,1.242,-27.903,1.075139,"0.7919"
"1063",1063,"58.05.2","3","20:5n3",0,1.54,-31.544,1.071155,"0.797"
"1064",1064,"58.05.3","3","12:00",0,15.705,-31.365,1.071351,"NA"
"1065",1065,"58.05.3","3","14:00",0,3.856,21.716,1.129398,"NA"
"1066",1066,"58.05.3","3","a15:0",0,57.757,-0.778,1.104808,"0.7494"
"1067",1067,"58.05.3","3","15:00",0,7.883,9.081,1.115587,"NA"
"1068",1068,"58.05.3","3","16:1n9/i16:0",0,10.253,61.27,1.172608,"0.7606"
"1069",1069,"58.05.3","3","16:00",0,92.042,121.123,1.237921,"NA"
"1070",1070,"58.05.3","3","i17:0",0,12.073,-28.445,1.074546,"0.76"
"1071",1071,"58.05.3","3","17:0cy",0,20.651,-11.488,1.093096,"0.7654"
"1072",1072,"58.05.3","3","17:00",0,15.707,-13.847,1.090515,"NA"
"1073",1073,"58.05.3","3","trans-18:1n9",0,38.595,68.976,1.181022,"0.7697"
"1074",1074,"58.05.3","3","18:00",0,25.502,102.955,1.218105,"NA"
"1075",1075,"58.05.3","3","19:0cy",0,99.935,-22.899,1.080614,"0.7736"
"1076",1076,"58.05.3","3","19:00",0,19.342,-32.19,1.070449,"NA"
"1077",1077,"58.05.3","3","20:4n6",0,1.828,-37.299,1.064857,"0.7919"
"1078",1078,"58.05.3","3","20:5n3",0,0.908,-34.613,1.067797,"0.797"
"1079",1079,"58.05.1","3ul","12:00",0,17.027,-31.293,1.07143,"NA"
"1080",1080,"58.05.1","3ul","14:00",0,3.3,-26.815,1.076329,"NA"
"1081",1081,"58.05.1","3ul","a15:0",0,4.016,15.313,1.122399,"0.7494"
"1082",1082,"58.05.1","3ul","15:00",0,4.01,-25.167,1.078132,"NA"
"1083",1083,"58.05.1","3ul","16:1n9/i16:0",0,9.105,42.92,1.152567,"0.7606"
"1084",1084,"58.05.1","3ul","16:00",0,90.064,110.384,1.226209,"NA"
"1085",1085,"58.05.1","3ul","i17:0",0,11.07,-26.268,1.076928,"0.76"
"1086",1086,"58.05.1","3ul","17:0cy",0,11.05,4.247,1.110302,"0.7654"
"1087",1087,"58.05.1","3ul","17:00",0,15.412,-10.661,1.094,"NA"
"1088",1088,"58.05.1","3ul","trans-18:1n9",0,34.67,62.569,1.174026,"0.7697"
"1089",1089,"58.05.1","3ul","18:00",0,21.082,83.308,1.196666,"NA"
"1090",1090,"58.05.1","3ul","19:0cy",0,106.872,-16.473,1.087643,"0.7736"
"1091",1091,"58.05.1","3ul","19:00",0,21.118,-28.396,1.074599,"NA"
"1092",1092,"58.05.1","3ul","20:4n6",0,1.887,-28.757,1.074205,"0.7919"
"1093",1093,"58.05.1","3ul","20:5n3",0,0.581,-30.051,1.072789,"0.797"
"1094",1094,"06.06.1","2.5","12:00",0,14.134,-30.734,1.072041,"NA"
"1095",1095,"06.06.1","2.5","14:00",0,2.026,14.499,1.12151,"NA"
"1096",1096,"06.06.1","2.5","a15:0",0,36.95,-3.967,1.10132,"0.7494"
"1097",1097,"06.06.1","2.5","15:00",0,3.797,4.312,1.110373,"NA"
"1098",1098,"06.06.1","2.5","16:1n9/i16:0",0,5.981,56.91,1.167847,"0.7606"
"1099",1099,"06.06.1","2.5","16:00",0,49.87,74.299,1.186833,"NA"
"1100",1100,"06.06.1","2.5","i17:0",0,2.236,-33.986,1.068483,"0.76"
"1101",1101,"06.06.1","2.5","17:0cy",0,13.331,-7.979,1.096933,"0.7654"
"1102",1102,"06.06.1","2.5","17:00",0,8.715,-12.665,1.091808,"NA"
"1103",1103,"06.06.1","2.5","trans-18:1n9",0,14.125,75.172,1.187786,"0.7697"
"1104",1104,"06.06.1","2.5","18:00",0,14.333,77.916,1.190781,"NA"
"1105",1105,"06.06.1","2.5","19:0cy",0,69.335,-19.698,1.084115,"0.7736"
"1106",1106,"06.06.1","2.5","19:00",0,15.946,-31.574,1.071123,"NA"
"1107",1107,"06.06.1","2.5","20:4n6",0,0.873,62.254,1.173683,"0.7919"
"1108",1108,"06.06.1","2.5","20:5n3",0,0.585,28.207,1.136492,"0.797"
"1109",1109,"06.06.2","2.5","12:00",0,16.245,-30.75,1.072024,"NA"
"1110",1110,"06.06.2","2.5","14:00",0,0.816,9.471,1.116013,"NA"
"1111",1111,"06.06.2","2.5","a15:0",0,11.641,-4.384,1.100864,"0.7494"
"1112",1112,"06.06.2","2.5","15:00",0,1.52,10.444,1.117077,"NA"
"1113",1113,"06.06.2","2.5","16:1n9/i16:0",0,1.547,56.604,1.167513,"0.7606"
"1114",1114,"06.06.2","2.5","16:00",0,16.068,145.927,1.264963,"NA"
"1115",1115,"06.06.2","2.5","i17:0",0,4.085,-34.106,1.068352,"0.76"
"1116",1116,"06.06.2","2.5","17:0cy",0,4.003,-6.73,1.098299,"0.7654"
"1117",1117,"06.06.2","2.5","17:00",0,2.705,-5.835,1.099278,"NA"
"1118",1118,"06.06.2","2.5","18:2n9,12 and cis-18:1n9 and 183n3",0,4.612,103.182,1.218353,"NA"
"1119",1119,"06.06.2","2.5","18:00",0,3.789,184.118,1.306571,"NA"
"1120",1120,"06.06.2","2.5","19:0cy",0,19.499,-13.368,1.091039,"0.7736"
"1121",1121,"06.06.2","2.5","19:00",0,14.806,-31.556,1.071142,"NA"
"1122",1122,"06.06.3","3","12:00",0,18.35,-31.704,1.07098,"NA"
"1123",1123,"06.06.3","3","14:00",0,4.141,2.997,1.108935,"NA"
"1124",1124,"06.06.3","3","a15:0",0,69.809,-11.002,1.093627,"0.7494"
"1125",1125,"06.06.3","3","15:00",0,7.275,-0.529,1.10508,"NA"
"1126",1126,"06.06.3","3","16:1n9/i16:0",0,10.943,17.556,1.124851,"0.7606"
"1127",1127,"06.06.3","3","16:00",0,100.719,40.7,1.150141,"NA"
"1128",1128,"06.06.3","3","i17:0",0,21.571,-31.603,1.07109,"0.76"
"1129",1129,"06.06.3","3","17:0cy",0,22.148,-16.963,1.087107,"0.7654"
"1130",1130,"06.06.3","3","17:00",0,16.083,-24.209,1.07918,"NA"
"1131",1131,"06.06.3","3","trans-18:1n9",0,37.202,15.617,1.122731,"0.7697"
"1132",1132,"06.06.3","3","18:00",0,29.991,38.675,1.147929,"NA"
"1133",1133,"06.06.3","3","19:0cy",0,132.968,-26.068,1.077146,"0.7736"
"1134",1134,"06.06.3","3","19:00",0,21.476,-31.874,1.070794,"NA"
"1135",1135,"06.06.3","3","20:4n6",0,2.194,-30.582,1.072207,"0.7919"
"1136",1136,"06.06.3","3","20:5n3",0,0.529,-29.55,1.073337,"0.797"
"1137",1137,"63.04.2","3","12:00",0,18.899,-30.844,1.071921,"NA"
"1138",1138,"63.04.2","3","14:00",0,2.342,26.625,1.134763,"NA"
"1139",1139,"63.04.2","3","a15:0",0,46.802,-4.347,1.100906,"0.7494"
"1140",1140,"63.04.2","3","15:00",0,4.29,6.125,1.112355,"NA"
"1141",1141,"63.04.2","3","16:1n9/i16:0",0,4.792,80.403,1.193496,"0.7606"
"1142",1142,"63.04.2","3","16:00",0,55.849,99.685,1.214537,"NA"
"1143",1143,"63.04.2","3","i17:0",0,15.654,-29.24,1.073677,"0.76"
"1144",1144,"63.04.2","3","17:0cy",0,18.365,-5.876,1.099233,"0.7654"
"1145",1145,"63.04.2","3","17:00",0,13.832,-14.694,1.089589,"NA"
"1146",1146,"63.04.2","3","trans-18:1n9",0,15.939,127.376,1.24474,"0.7697"
"1147",1147,"63.04.2","3","18:00",0,10.915,160.381,1.280714,"NA"
"1148",1148,"63.04.2","3","19:0cy",0,68.711,-18.621,1.085293,"0.7736"
"1149",1149,"63.04.2","3","19:00",0,20.916,-28.095,1.074929,"NA"
"1150",1150,"63.04.2","3","20:5n3",0,0.305,-15.192,1.089044,"0.797"
